% Version 1.00
%
% Ref Impedances: Z01: 50, Z02: 50
% 
%freq[Hz];re:Trc2_Z<-S11[Ohm];im:Trc2_Z<-S11[Ohm];
1.000000000000000E+005,7.521665977450465E+000,2.050602337518917E+001,
1.199839967993599E+005,9.928656985796847E+000,2.323450571165622E+001,
1.399679935987197E+005,1.234786718054943E+001,2.555033153349637E+001,
1.599519903980796E+005,1.474919425921233E+001,2.752686864573246E+001,
1.799359871974395E+005,1.707319535116525E+001,2.919221422469508E+001,
1.999199839967994E+005,1.930923654106443E+001,3.060120164400886E+001,
2.199039807961593E+005,2.141764096068730E+001,3.180966983404407E+001,
2.398879775955191E+005,2.341987064872513E+001,3.286468539206992E+001,
2.598719743948790E+005,2.531977901957556E+001,3.376090919857807E+001,
2.798559711942389E+005,2.710755527714655E+001,3.452332330925193E+001,
2.998399679935987E+005,2.876787197818743E+001,3.521861553917191E+001,
3.198239647929586E+005,3.036549234795099E+001,3.581546954715837E+001,
3.398079615923185E+005,3.184985849653678E+001,3.634635721061659E+001,
3.597919583916783E+005,3.323018265006938E+001,3.684024796054405E+001,
3.797759551910382E+005,3.454254065933210E+001,3.727493358948116E+001,
3.997599519903981E+005,3.578207012673319E+001,3.769520801359689E+001,
4.197439487897580E+005,3.692901917142238E+001,3.809174280852283E+001,
4.397279455891178E+005,3.801149717649225E+001,3.844712039766233E+001,
4.597119423884777E+005,3.905018715613789E+001,3.881253704957899E+001,
4.796959391878376E+005,4.000765314371341E+001,3.917810915182191E+001,
4.996799359871974E+005,4.093633422658079E+001,3.953378476562566E+001,
5.196639327865574E+005,4.187633415639158E+001,3.988588086408822E+001,
5.396479295859172E+005,4.272310119916716E+001,4.025472597115689E+001,
5.596319263852771E+005,4.356501538952485E+001,4.060445756105178E+001,
5.796159231846370E+005,4.441745267031986E+001,4.092707172450545E+001,
5.995999199839968E+005,4.518660642584620E+001,4.128496554449534E+001,
6.195839167833567E+005,4.597339454929791E+001,4.161959337044077E+001,
6.395679135827166E+005,4.670227103327392E+001,4.194220295916706E+001,
6.595519103820764E+005,4.742337421474965E+001,4.226544823524875E+001,
6.795359071814363E+005,4.811977223118917E+001,4.256498404300469E+001,
6.995199039807962E+005,4.879800307275098E+001,4.286958818405339E+001,
7.195039007801560E+005,4.945761999257662E+001,4.317471237023836E+001,
7.394878975795159E+005,5.009128009350396E+001,4.350461017634125E+001,
7.594718943788759E+005,5.068180542579935E+001,4.380072645829335E+001,
7.794558911782356E+005,5.129312375666233E+001,4.407783664156806E+001,
7.994398879775956E+005,5.184085829552611E+001,4.443384160484363E+001,
8.194238847769555E+005,5.241814529676524E+001,4.476298428873985E+001,
8.394078815763153E+005,5.292258640001298E+001,4.506480152764476E+001,
8.593918783756752E+005,5.346668969828598E+001,4.538447682667427E+001,
8.793758751750351E+005,5.401658463950439E+001,4.572946112482264E+001,
8.993598719743949E+005,5.450608824310302E+001,4.606996023828551E+001,
9.193438687737548E+005,5.506784983354368E+001,4.645542250084686E+001,
9.393278655731147E+005,5.556680597358075E+001,4.677806511245344E+001,
9.593118623724745E+005,5.606856511202856E+001,4.715286491916367E+001,
9.792958591718344E+005,5.660507436669361E+001,4.749428848588624E+001,
9.992798559711943E+005,5.709746831352448E+001,4.781985387965398E+001,
1.019263852770554E+006,5.761450901648355E+001,4.816493975577774E+001,
1.039247849569914E+006,5.812676341772389E+001,4.850534085409186E+001,
1.059231846369274E+006,5.864379796368212E+001,4.886097855688945E+001,
1.079215843168634E+006,5.911641369343543E+001,4.918483026637624E+001,
1.099199839967994E+006,5.962844120207376E+001,4.950078165516666E+001,
1.119183836767354E+006,6.012018557787516E+001,4.985899078597310E+001,
1.139167833566713E+006,6.062443034121836E+001,5.013206615603784E+001,
1.159151830366073E+006,6.111784725452588E+001,5.044479853880657E+001,
1.179135827165433E+006,6.160394314402390E+001,5.074432764055280E+001,
1.199119823964793E+006,6.203823715906206E+001,5.106399593495610E+001,
1.219103820764153E+006,6.252826639050880E+001,5.135736074238810E+001,
1.239087817563513E+006,6.293795454129118E+001,5.162914751163556E+001,
1.259071814362873E+006,6.341595076080655E+001,5.194558972104607E+001,
1.279055811162232E+006,6.381430061061534E+001,5.225880940046438E+001,
1.299039807961593E+006,6.424342155128952E+001,5.252209702918225E+001,
1.319023804760952E+006,6.471544481520427E+001,5.281735670320079E+001,
1.339007801560312E+006,6.508244523852970E+001,5.310990597124048E+001,
1.358991798359672E+006,6.555516313950666E+001,5.342506630935064E+001,
1.378975795159032E+006,6.594353108322250E+001,5.372794671618568E+001,
1.398959791958392E+006,6.634268466191050E+001,5.405401060211635E+001,
1.418943788757752E+006,6.678082104301210E+001,5.433604095917455E+001,
1.438927785557112E+006,6.718213501010068E+001,5.468035847460800E+001,
1.458911782356471E+006,6.755757453968589E+001,5.498731700061145E+001,
1.478895779155831E+006,6.800115861476621E+001,5.533766613675499E+001,
1.498879775955191E+006,6.841516526202211E+001,5.561611383833243E+001,
1.518863772754551E+006,6.881408054147931E+001,5.593237249300833E+001,
1.538847769553911E+006,6.921631928652346E+001,5.625986707027121E+001,
1.558831766353271E+006,6.965741809399314E+001,5.659508236286109E+001,
1.578815763152631E+006,7.006752545701288E+001,5.688029763578788E+001,
1.598799759951991E+006,7.047686656599485E+001,5.720422327409213E+001,
1.618783756751350E+006,7.092617324800330E+001,5.749146336334415E+001,
1.638767753550710E+006,7.133238598892197E+001,5.780627930809938E+001,
1.658751750350070E+006,7.173675381803605E+001,5.809710258015885E+001,
1.678735747149430E+006,7.219116006941174E+001,5.839686327337569E+001,
1.698719743948790E+006,7.262466860091644E+001,5.864292741024427E+001,
1.718703740748150E+006,7.306392686846955E+001,5.894623824469624E+001,
1.738687737547510E+006,7.346429714746304E+001,5.920866677329479E+001,
1.758671734346869E+006,7.387411964344697E+001,5.946468758487212E+001,
1.778655731146229E+006,7.428084440668754E+001,5.974531704655870E+001,
1.798639727945589E+006,7.472727060042131E+001,5.999716705547311E+001,
1.818623724744949E+006,7.509956396766499E+001,6.025092856755077E+001,
1.838607721544309E+006,7.552261389797079E+001,6.048192599316390E+001,
1.858591718343669E+006,7.590465939095184E+001,6.072687797624023E+001,
1.878575715143029E+006,7.631206937741460E+001,6.099996255497583E+001,
1.898559711942389E+006,7.668230832640916E+001,6.125328474505132E+001,
1.918543708741749E+006,7.703937609932073E+001,6.149187979115968E+001,
1.938527705541108E+006,7.742778963478723E+001,6.170042846321076E+001,
1.958511702340468E+006,7.785443500079181E+001,6.196258116229900E+001,
1.978495699139828E+006,7.817767378792694E+001,6.224106523821325E+001,
1.998479695939188E+006,7.863989823970334E+001,6.245344185609212E+001,
2.018463692738548E+006,7.896183240922505E+001,6.269298269065959E+001,
2.038447689537908E+006,7.934974759090156E+001,6.296462677282217E+001,
2.058431686337268E+006,7.968004916420406E+001,6.320265805106880E+001,
2.078415683136627E+006,8.004138122299473E+001,6.343573343228422E+001,
2.098399679935987E+006,8.042179299472228E+001,6.370109128463022E+001,
2.118383676735347E+006,8.075631682258921E+001,6.392047403852702E+001,
2.138367673534707E+006,8.110621135892941E+001,6.417032954447393E+001,
2.158351670334067E+006,8.149080534362413E+001,6.446612949144240E+001,
2.178335667133427E+006,8.184165389073502E+001,6.467072217220321E+001,
2.198319663932787E+006,8.219834302728219E+001,6.493977264985112E+001,
2.218303660732146E+006,8.258694353882510E+001,6.521867350978225E+001,
2.238287657531506E+006,8.297484662171500E+001,6.545178632477695E+001,
2.258271654330866E+006,8.331634619135984E+001,6.569447489770205E+001,
2.278255651130226E+006,8.366202791684486E+001,6.596532996493490E+001,
2.298239647929586E+006,8.402072508605160E+001,6.616687241923101E+001,
2.318223644728946E+006,8.439514210352223E+001,6.644659038525207E+001,
2.338207641528306E+006,8.475832926535344E+001,6.669500460451714E+001,
2.358191638327666E+006,8.518037446200584E+001,6.695386275830904E+001,
2.378175635127026E+006,8.552821277165020E+001,6.717392055770976E+001,
2.398159631926385E+006,8.591504046502925E+001,6.738478102606027E+001,
2.418143628725745E+006,8.627256366307078E+001,6.762885788307008E+001,
2.438127625525105E+006,8.663330546346738E+001,6.789199165197300E+001,
2.458111622324465E+006,8.698198631918419E+001,6.809478636409496E+001,
2.478095619123825E+006,8.740343361775173E+001,6.830682574252857E+001,
2.498079615923185E+006,8.777576950335967E+001,6.856311044838280E+001,
2.518063612722545E+006,8.810726950413580E+001,6.874912080045461E+001,
2.538047609521905E+006,8.849524154748613E+001,6.902020576182210E+001,
2.558031606321265E+006,8.891464906725967E+001,6.920203253117303E+001,
2.578015603120624E+006,8.927780056646883E+001,6.939875263760452E+001,
2.597999599919984E+006,8.959454611294699E+001,6.960457637351040E+001,
2.617983596719344E+006,9.001920371147381E+001,6.983035538898817E+001,
2.637967593518704E+006,9.037605701369921E+001,7.001600190611757E+001,
2.657951590318064E+006,9.070433816660822E+001,7.021616296723133E+001,
2.677935587117424E+006,9.110521134387861E+001,7.038275130847119E+001,
2.697919583916783E+006,9.143750932180676E+001,7.054886576067371E+001,
2.717903580716143E+006,9.179038862871235E+001,7.073662863670076E+001,
2.737887577515503E+006,9.214887864651109E+001,7.091963567006521E+001,
2.757871574314863E+006,9.245920360722155E+001,7.108161766062955E+001,
2.777855571114223E+006,9.284654951168731E+001,7.130339208393771E+001,
2.797839567913583E+006,9.314591594510476E+001,7.146030722030442E+001,
2.817823564712943E+006,9.342134349808529E+001,7.166546256124877E+001,
2.837807561512303E+006,9.375676205472445E+001,7.188188520977384E+001,
2.857791558311663E+006,9.410981574694092E+001,7.207209267159179E+001,
2.877775555111022E+006,9.444914938686995E+001,7.226791621456142E+001,
2.897759551910382E+006,9.475456204163699E+001,7.245793003516548E+001,
2.917743548709742E+006,9.509943717231246E+001,7.264923635120239E+001,
2.937727545509102E+006,9.537839191917765E+001,7.288164177026485E+001,
2.957711542308462E+006,9.576063622370127E+001,7.305571793814124E+001,
2.977695539107822E+006,9.608038941762874E+001,7.326289618388005E+001,
2.997679535907181E+006,9.645120736732133E+001,7.342547964917263E+001,
3.017663532706542E+006,9.676852830888664E+001,7.364594378530403E+001,
3.037647529505902E+006,9.703647043913712E+001,7.385582688605278E+001,
3.057631526305261E+006,9.742349844056380E+001,7.408184143294108E+001,
3.077615523104621E+006,9.775392535200842E+001,7.428071124570643E+001,
3.097599519903981E+006,9.809542895082844E+001,7.445210451383618E+001,
3.117583516703341E+006,9.841487900727920E+001,7.464178133930233E+001,
3.137567513502701E+006,9.877046014691771E+001,7.486655300009575E+001,
3.157551510302061E+006,9.912547788067862E+001,7.502170047889543E+001,
3.177535507101420E+006,9.945505232940596E+001,7.524307548374291E+001,
3.197519503900780E+006,9.982456645431692E+001,7.543070900365508E+001,
3.217503500700140E+006,1.001116142404529E+002,7.562326435327759E+001,
3.237487497499500E+006,1.004907686549044E+002,7.582584017423332E+001,
3.257471494298860E+006,1.008290845793200E+002,7.599483504734006E+001,
3.277455491098220E+006,1.011863624057525E+002,7.622804675726927E+001,
3.297439487897580E+006,1.015031735543413E+002,7.642198205497998E+001,
3.317423484696940E+006,1.018054609532254E+002,7.652257904030790E+001,
3.337407481496300E+006,1.021946797827962E+002,7.672639423385976E+001,
3.357391478295659E+006,1.025215964324895E+002,7.691593541165899E+001,
3.377375475095019E+006,1.028605491169475E+002,7.710558379512233E+001,
3.397359471894379E+006,1.032023415346031E+002,7.723742593725133E+001,
3.417343468693739E+006,1.036113354797581E+002,7.736632138377919E+001,
3.437327465493099E+006,1.038607026272863E+002,7.755753265613298E+001,
3.457311462292459E+006,1.042760400478758E+002,7.775820126364702E+001,
3.477295459091818E+006,1.045636211761418E+002,7.801190653953564E+001,
3.497279455891179E+006,1.049309973776630E+002,7.809153108493022E+001,
3.517263452690539E+006,1.052880046615138E+002,7.827268604754805E+001,
3.537247449489898E+006,1.055846991594992E+002,7.842548874804258E+001,
3.557231446289258E+006,1.059271222451595E+002,7.862383407457119E+001,
3.577215443088618E+006,1.062299879287635E+002,7.873943499324038E+001,
3.597199439887978E+006,1.066116470939334E+002,7.886633699539652E+001,
3.617183436687338E+006,1.069566763685017E+002,7.906218098262075E+001,
3.637167433486698E+006,1.072583380190086E+002,7.918988342742527E+001,
3.657151430286057E+006,1.075848349735895E+002,7.937793258447503E+001,
3.677135427085417E+006,1.079180498358051E+002,7.952075193797725E+001,
3.697119423884777E+006,1.082463898270970E+002,7.968480274546836E+001,
3.717103420684137E+006,1.085593833390398E+002,7.982856512833033E+001,
3.737087417483497E+006,1.089575557293994E+002,8.000531791757054E+001,
3.757071414282857E+006,1.092222347945183E+002,8.015030916871282E+001,
3.777055411082217E+006,1.095903738717499E+002,8.027262796647429E+001,
3.797039407881577E+006,1.099081664102308E+002,8.041973898965398E+001,
3.817023404680937E+006,1.102586629101053E+002,8.063196424983335E+001,
3.837007401480296E+006,1.105701491746545E+002,8.075527889749733E+001,
3.856991398279656E+006,1.108797841809741E+002,8.086937911185157E+001,
3.876975395079016E+006,1.111659704420027E+002,8.099877329792109E+001,
3.896959391878376E+006,1.114806826916450E+002,8.116535513168319E+001,
3.916943388677736E+006,1.118124742104569E+002,8.129325240054253E+001,
3.936927385477096E+006,1.121677516165632E+002,8.141856124913994E+001,
3.956911382276455E+006,1.124261203859623E+002,8.160207585084660E+001,
3.976895379075815E+006,1.127376349409475E+002,8.174303639633615E+001,
3.996879375875175E+006,1.128652243370571E+002,8.213933162629752E+001,
4.016863372674535E+006,1.134066180106474E+002,8.200075048697384E+001,
4.036847369473895E+006,1.136725327227963E+002,8.220932444057635E+001,
4.056831366273255E+006,1.140599678408257E+002,8.235138622059787E+001,
4.076815363072615E+006,1.143083306721590E+002,8.249446085319464E+001,
4.096799359871975E+006,1.146934306234250E+002,8.266327455547740E+001,
4.116783356671334E+006,1.150282329420793E+002,8.279125273656281E+001,
4.136767353470694E+006,1.152480136636640E+002,8.289425769079085E+001,
4.156751350270054E+006,1.156081028268648E+002,8.302890810828116E+001,
4.176735347069414E+006,1.159418679176607E+002,8.322535377789008E+001,
4.196719343868773E+006,1.162484236024509E+002,8.335564973045071E+001,
4.216703340668134E+006,1.165686327416951E+002,8.352824096864798E+001,
4.236687337467494E+006,1.168447507688563E+002,8.362008560753846E+001,
4.256671334266854E+006,1.172008229499501E+002,8.374442931329395E+001,
4.276655331066214E+006,1.175248389413729E+002,8.398128159685615E+001,
4.296639327865574E+006,1.177888590572436E+002,8.409179115062305E+001,
4.316623324664934E+006,1.181448763905362E+002,8.424781460099095E+001,
4.336607321464293E+006,1.184244122352066E+002,8.437557636659813E+001,
4.356591318263653E+006,1.188108776447139E+002,8.450289234960427E+001,
4.376575315063013E+006,1.191284803096189E+002,8.468697449625344E+001,
4.396559311862373E+006,1.194600463235711E+002,8.481836483962319E+001,
4.416543308661733E+006,1.197653383140819E+002,8.494329425067986E+001,
4.436527305461093E+006,1.201028702109386E+002,8.506160572563849E+001,
4.456511302260452E+006,1.204300651514312E+002,8.519165027854662E+001,
4.476495299059812E+006,1.207360923803911E+002,8.532026971793542E+001,
4.496479295859172E+006,1.210545589859755E+002,8.545909469516613E+001,
4.516463292658532E+006,1.214136108565459E+002,8.558734224687572E+001,
4.536447289457892E+006,1.217295150774260E+002,8.570090913047270E+001,
4.556431286257252E+006,1.220311035451702E+002,8.580854618854163E+001,
4.576415283056611E+006,1.223782472481324E+002,8.601140342441380E+001,
4.596399279855971E+006,1.226732003262428E+002,8.608140377152077E+001,
4.616383276655331E+006,1.230735484638420E+002,8.621995960146469E+001,
4.636367273454691E+006,1.233408104465749E+002,8.639241059283499E+001,
4.656351270254051E+006,1.236694559402062E+002,8.651900242277114E+001,
4.676335267053411E+006,1.240222263555768E+002,8.663904096055641E+001,
4.696319263852770E+006,1.243194150353589E+002,8.678722514598913E+001,
4.716303260652131E+006,1.246352237690750E+002,8.693977966262463E+001,
4.736287257451491E+006,1.250027929067586E+002,8.707742120629058E+001,
4.756271254250851E+006,1.253671773811403E+002,8.714080171956391E+001,
4.776255251050211E+006,1.256787328387829E+002,8.726559162635164E+001,
4.796239247849571E+006,1.259661085650415E+002,8.745148201194502E+001,
4.816223244648930E+006,1.263404742291521E+002,8.755436284744611E+001,
4.836207241448290E+006,1.266791538817345E+002,8.767394347203150E+001,
4.856191238247650E+006,1.270396345053510E+002,8.780540850177528E+001,
4.876175235047010E+006,1.273808345823283E+002,8.789403523535202E+001,
4.896159231846370E+006,1.277525808712983E+002,8.806653519981963E+001,
4.916143228645730E+006,1.280291728962676E+002,8.813544782447541E+001,
4.936127225445089E+006,1.284088468113634E+002,8.815591958039923E+001,
4.956111222244449E+006,1.287548887643167E+002,8.821531056644179E+001,
4.976095219043809E+006,1.290004880842778E+002,8.842941993310419E+001,
4.996079215843169E+006,1.294424588750775E+002,8.841954818167071E+001,
5.016063212642529E+006,1.297113732616804E+002,8.857460305429164E+001,
5.036047209441889E+006,1.300305499400684E+002,8.861375654644047E+001,
5.056031206241248E+006,1.303407107079352E+002,8.871658433944126E+001,
5.076015203040608E+006,1.306167444391703E+002,8.879012216020821E+001,
5.095999199839968E+006,1.309811096582852E+002,8.892929045630872E+001,
5.115983196639328E+006,1.313162344776690E+002,8.899515111519713E+001,
5.135967193438688E+006,1.316159692777590E+002,8.908633289155681E+001,
5.155951190238048E+006,1.319634006581467E+002,8.918200219035045E+001,
5.175935187037407E+006,1.322715455166392E+002,8.922707875011533E+001,
5.195919183836767E+006,1.325982604678432E+002,8.940550899666962E+001,
5.215903180636128E+006,1.328107922352592E+002,8.949067589691097E+001,
5.235887177435488E+006,1.331501732212292E+002,8.956381028958332E+001,
5.255871174234848E+006,1.334642823417944E+002,8.966367720485413E+001,
5.275855171034207E+006,1.338460669706032E+002,8.969584574184235E+001,
5.295839167833567E+006,1.341195498929273E+002,8.988771851661994E+001,
5.315823164632927E+006,1.344680187681321E+002,8.998368120107264E+001,
5.335807161432287E+006,1.347599539321670E+002,9.010528352035709E+001,
5.355791158231647E+006,1.350704913077302E+002,9.016336564844232E+001,
5.375775155031007E+006,1.353960359433014E+002,9.023968191231776E+001,
5.395759151830366E+006,1.357088429423531E+002,9.031972280895955E+001,
5.415743148629726E+006,1.360176351726792E+002,9.045788743267289E+001,
5.435727145429086E+006,1.363188428725686E+002,9.042962387007015E+001,
5.455711142228446E+006,1.366458736499773E+002,9.062441608682720E+001,
5.475695139027806E+006,1.369954745994816E+002,9.071143012390328E+001,
5.495679135827166E+006,1.373472370856341E+002,9.083409377174583E+001,
5.515663132626525E+006,1.375891720512630E+002,9.085087779383385E+001,
5.535647129425885E+006,1.378936828161014E+002,9.099952010507302E+001,
5.555631126225245E+006,1.383023956683330E+002,9.107529623700326E+001,
5.575615123024605E+006,1.386110676938926E+002,9.117781021064768E+001,
5.595599119823965E+006,1.389329095320835E+002,9.128634890734568E+001,
5.615583116623325E+006,1.392018831033562E+002,9.127777798967371E+001,
5.635567113422684E+006,1.395850802032237E+002,9.136438007923057E+001,
5.655551110222044E+006,1.399314622954441E+002,9.150328778660079E+001,
5.675535107021404E+006,1.402039596447492E+002,9.160943339982214E+001,
