% Version 1.00
%
% Ref Impedances: Z01: 50, Z02: 50
% 
%freq[Hz];re:Trc2_Z<-S11[Ohm];im:Trc2_Z<-S11[Ohm];
1.000000000000000E+005,7.637775756164391E+000,1.938046864082876E+001,
1.499749874937469E+005,1.344569171855560E+001,2.484326381919226E+001,
1.999499749874937E+005,1.883565221412393E+001,2.837969745576324E+001,
2.499249624812406E+005,2.353124770084097E+001,3.073329590000934E+001,
2.998999499749875E+005,2.755622858552122E+001,3.236074199560080E+001,
3.498749374687343E+005,3.097524472726479E+001,3.354949365129442E+001,
3.998499249624813E+005,3.387923043937036E+001,3.450170559276172E+001,
4.498249124562281E+005,3.638412453243849E+001,3.534096049412977E+001,
4.997998999499750E+005,3.857729618960597E+001,3.613719630400077E+001,
5.497748874437218E+005,4.057320172075484E+001,3.692483237224859E+001,
5.997498749374687E+005,4.237701447321158E+001,3.770600269102837E+001,
6.497248624312156E+005,4.405454182705810E+001,3.842841599840254E+001,
6.996998499249625E+005,4.558469286065140E+001,3.913428083582470E+001,
7.496748374187093E+005,4.699425942339838E+001,3.984666438072433E+001,
7.996498249124562E+005,4.830808509821829E+001,4.058788599710722E+001,
8.496248124062030E+005,4.955506350382043E+001,4.132958690659547E+001,
8.995997998999499E+005,5.074744340503786E+001,4.211581008426143E+001,
9.495747873936968E+005,5.194007509774412E+001,4.287551532939249E+001,
9.995497748874436E+005,5.304709451452321E+001,4.364502741615983E+001,
1.049524762381190E+006,5.416073314873270E+001,4.442800248452691E+001,
1.099499749874937E+006,5.527632022163530E+001,4.517618312753748E+001,
1.149474737368684E+006,5.635939921814141E+001,4.587078294217945E+001,
1.199449724862431E+006,5.737136097527468E+001,4.660577659672573E+001,
1.249424712356178E+006,5.837866305997098E+001,4.729169707330223E+001,
1.299399699849925E+006,5.932974373636208E+001,4.800932573290393E+001,
1.349374687343672E+006,6.029281732715288E+001,4.872095332469553E+001,
1.399349674837419E+006,6.118157703881528E+001,4.938291290003169E+001,
1.449324662331166E+006,6.210662540662967E+001,5.011672464739408E+001,
1.499299649824912E+006,6.301821318756888E+001,5.082465399611351E+001,
1.549274637318659E+006,6.393744002288147E+001,5.155083894351293E+001,
1.599249624812406E+006,6.483267270157762E+001,5.223254165389254E+001,
1.649224612306153E+006,6.572800604243801E+001,5.290674600685547E+001,
1.699199599799900E+006,6.664545294350941E+001,5.357335653558143E+001,
1.749174587293647E+006,6.753520178021158E+001,5.421458457725655E+001,
1.799149574787394E+006,6.841576137552711E+001,5.483114717339753E+001,
1.849124562281140E+006,6.928790363369954E+001,5.540111937438921E+001,
1.899099549774887E+006,7.009710776349593E+001,5.601481784934187E+001,
1.949074537268634E+006,7.095375810191973E+001,5.657671108614820E+001,
1.999049524762381E+006,7.173564583755940E+001,5.716187629225681E+001,
2.049024512256128E+006,7.251974720548718E+001,5.776522687763774E+001,
2.098999499749875E+006,7.329842669647675E+001,5.835577360022284E+001,
2.148974487243622E+006,7.409195714020316E+001,5.891029087444255E+001,
2.198949474737369E+006,7.489335889324657E+001,5.952332453438239E+001,
2.248924462231115E+006,7.562882529884577E+001,6.011107054353867E+001,
2.298899449724862E+006,7.643474235157885E+001,6.071217469103515E+001,
2.348874437218609E+006,7.723614534415367E+001,6.124936077817192E+001,
2.398849424712356E+006,7.798923236432032E+001,6.175009170661194E+001,
2.448824412206103E+006,7.877852318715695E+001,6.231136477007269E+001,
2.498799399699850E+006,7.955805148423728E+001,6.282190118380074E+001,
2.548774387193597E+006,8.032781372506355E+001,6.335996282689376E+001,
2.598749374687343E+006,8.108373431412741E+001,6.385381150246669E+001,
2.648724362181090E+006,8.184180287138067E+001,6.432610771394546E+001,
2.698699349674837E+006,8.257477890739801E+001,6.484681336111136E+001,
2.748674337168584E+006,8.324471449431469E+001,6.528896216627432E+001,
2.798649324662331E+006,8.399281804287965E+001,6.574968770318908E+001,
2.848624312156078E+006,8.465865933393111E+001,6.623731052916703E+001,
2.898599299649825E+006,8.539466098702478E+001,6.666438275870787E+001,
2.948574287143572E+006,8.611883428040981E+001,6.717610747496491E+001,
2.998549274637319E+006,8.679586228712233E+001,6.762511882533894E+001,
3.048524262131065E+006,8.748833939455996E+001,6.809529274411300E+001,
3.098499249624812E+006,8.815488068460682E+001,6.857482910239543E+001,
3.148474237118559E+006,8.886823510920520E+001,6.902712633019117E+001,
3.198449224612306E+006,8.953420907618151E+001,6.947374122813496E+001,
3.248424212106053E+006,9.025704007383564E+001,6.997978938997218E+001,
3.298399199599800E+006,9.088970700075097E+001,7.036702297805108E+001,
3.348374187093547E+006,9.158798587697706E+001,7.083183156209216E+001,
3.398349174587294E+006,9.232855767024131E+001,7.127282182146652E+001,
3.448324162081040E+006,9.299650566110879E+001,7.163976945729600E+001,
3.498299149574787E+006,9.368499722433572E+001,7.208898083028716E+001,
3.548274137068534E+006,9.436323615024780E+001,7.250650436475770E+001,
3.598249124562281E+006,9.502183022762264E+001,7.295590900059358E+001,
3.648224112056028E+006,9.572833510824904E+001,7.327210922040734E+001,
3.698199099549775E+006,9.639778483268781E+001,7.371804385732767E+001,
3.748174087043522E+006,9.696817009548359E+001,7.409717159416888E+001,
3.798149074537268E+006,9.763196950972416E+001,7.447927838793100E+001,
3.848124062031015E+006,9.829548867214993E+001,7.491840835423159E+001,
3.898099049524762E+006,9.889212764073584E+001,7.521407062537296E+001,
3.948074037018509E+006,9.956878173145903E+001,7.560466346363567E+001,
3.998049024512256E+006,1.002880767827667E+002,7.591223646753130E+001,
4.048024012006003E+006,1.008243108579741E+002,7.634919232756890E+001,
4.097998999499749E+006,1.014842443938510E+002,7.671159274943787E+001,
4.147973986993496E+006,1.021117568246308E+002,7.719230328252857E+001,
4.197948974487243E+006,1.026981645122853E+002,7.748557651737730E+001,
4.247923961980990E+006,1.033613063379653E+002,7.782902195334899E+001,
4.297898949474737E+006,1.039673698867133E+002,7.826316594397038E+001,
4.347873936968484E+006,1.045962675878348E+002,7.857267861973980E+001,
4.397848924462231E+006,1.052196847387547E+002,7.890086366954581E+001,
4.447823911955978E+006,1.058697909331604E+002,7.931992729097463E+001,
4.497798899449725E+006,1.064762622060404E+002,7.957214687808241E+001,
4.547773886943472E+006,1.071687727310317E+002,7.999672602257574E+001,
4.597748874437219E+006,1.077784280079995E+002,8.033401278320150E+001,
4.647723861930965E+006,1.084475208516504E+002,8.066589832958134E+001,
4.697698849424712E+006,1.090404604848050E+002,8.100887996336320E+001,
4.747673836918459E+006,1.096385134006261E+002,8.130016027521837E+001,
4.797648824412206E+006,1.102415123817156E+002,8.164333443652789E+001,
4.847623811905953E+006,1.108953078826612E+002,8.193849380515501E+001,
4.897598799399700E+006,1.115405890659461E+002,8.225733945043822E+001,
4.947573786893446E+006,1.120932002953908E+002,8.256138739833347E+001,
4.997548774387193E+006,1.127803374429880E+002,8.283039784246280E+001,
5.047523761880940E+006,1.133305594925475E+002,8.315092397996799E+001,
5.097498749374687E+006,1.139247368554927E+002,8.341835255732110E+001,
5.147473736868434E+006,1.145236624482651E+002,8.373163388659933E+001,
5.197448724362181E+006,1.151127328376270E+002,8.406144952782363E+001,
5.247423711855928E+006,1.157084529909654E+002,8.433564878096230E+001,
5.297398699349674E+006,1.163087243532073E+002,8.462518604193518E+001,
5.347373686843421E+006,1.169194686023855E+002,8.498838983137526E+001,
5.397348674337168E+006,1.175011308712914E+002,8.527588157901778E+001,
5.447323661830915E+006,1.181066768455051E+002,8.550026581059856E+001,
5.497298649324662E+006,1.186837358886144E+002,8.588237337835888E+001,
5.547273636818409E+006,1.192861209732693E+002,8.611965982620426E+001,
5.597248624312156E+006,1.198583769255989E+002,8.638174633285172E+001,
5.647223611805903E+006,1.204262583263359E+002,8.670728619487383E+001,
5.697198599299650E+006,1.210771560872221E+002,8.701461856500906E+001,
5.747173586793397E+006,1.217220634523393E+002,8.726549380039199E+001,
5.797148574287144E+006,1.222935321637118E+002,8.750075033688475E+001,
5.847123561780890E+006,1.228751315818543E+002,8.776721196323314E+001,
5.897098549274637E+006,1.235092529457027E+002,8.802067257523267E+001,
5.947073536768384E+006,1.240537458534133E+002,8.835791433877431E+001,
5.997048524262130E+006,1.247158411436348E+002,8.855775503834119E+001,
6.047023511755877E+006,1.252751140810327E+002,8.878124378713648E+001,
6.096998499249624E+006,1.258326252360457E+002,8.910043900095394E+001,
6.146973486743371E+006,1.264252048678351E+002,8.938739405873054E+001,
6.196948474237118E+006,1.270729083356248E+002,8.954549470649224E+001,
6.246923461730865E+006,1.276538322035380E+002,8.988029837882441E+001,
6.296898449224612E+006,1.281670926003312E+002,9.002977306920820E+001,
6.346873436718359E+006,1.287886925741444E+002,9.024106862381143E+001,
6.396848424212106E+006,1.293388769245502E+002,9.046206759884807E+001,
6.446823411705853E+006,1.298772689303327E+002,9.075861074099143E+001,
6.496798399199599E+006,1.305179002423174E+002,9.097562362878927E+001,
6.546773386693346E+006,1.310868570215316E+002,9.119546175090619E+001,
6.596748374187093E+006,1.317206973173990E+002,9.141281168311305E+001,
6.646723361680840E+006,1.322752457069791E+002,9.162470296656615E+001,
6.696698349174587E+006,1.329391516087888E+002,9.183102938518954E+001,
6.746673336668334E+006,1.334998280810273E+002,9.211796221289102E+001,
6.796648324162081E+006,1.339594394973256E+002,9.226485892261039E+001,
6.846623311655828E+006,1.346727019205782E+002,9.258098237414009E+001,
6.896598299149575E+006,1.351734503745154E+002,9.275348615176343E+001,
6.946573286643322E+006,1.357716192807359E+002,9.289628142558560E+001,
6.996548274137069E+006,1.363839054033172E+002,9.305323434690989E+001,
7.046523261630815E+006,1.369294212515559E+002,9.330655338055539E+001,
7.096498249124561E+006,1.375092776814668E+002,9.353923651485737E+001,
7.146473236618308E+006,1.380435111411718E+002,9.370748348110803E+001,
7.196448224112055E+006,1.387205730019498E+002,9.395404781684633E+001,
7.246423211605802E+006,1.392849225506272E+002,9.412100097938203E+001,
7.296398199099549E+006,1.398170088869032E+002,9.434574917580673E+001,
7.346373186593296E+006,1.404801190892190E+002,9.445796791698540E+001,
7.396348174087043E+006,1.410019741884576E+002,9.461877135204676E+001,
7.446323161580790E+006,1.416179323170501E+002,9.483288806015865E+001,
7.496298149074537E+006,1.421606754540245E+002,9.492409309741598E+001,
7.546273136568284E+006,1.426341242691985E+002,9.519467495927438E+001,
7.596248124062031E+006,1.432145434970229E+002,9.531977963770332E+001,
7.646223111555778E+006,1.437677095644288E+002,9.548409720647112E+001,
7.696198099049524E+006,1.443261494579707E+002,9.571862641988014E+001,
7.746173086543271E+006,1.448130470683081E+002,9.594849895396536E+001,
7.796148074037018E+006,1.454494470153062E+002,9.606582230129249E+001,
7.846123061530765E+006,1.459946359108193E+002,9.625625043043118E+001,
7.896098049024512E+006,1.465757487125620E+002,9.643306520107552E+001,
7.946073036518259E+006,1.472286865876394E+002,9.659342489925413E+001,
7.996048024012006E+006,1.476889159425013E+002,9.676396426472343E+001,
8.046023011505753E+006,1.483354489555649E+002,9.702273268055953E+001,
8.095997998999499E+006,1.489159944653962E+002,9.714657189412458E+001,
8.145972986493246E+006,1.494158371822411E+002,9.737961333480799E+001,
8.195947973986993E+006,1.500241397430438E+002,9.742950059158925E+001,
8.245922961480740E+006,1.505571653087358E+002,9.764949925382786E+001,
8.295897948974486E+006,1.511285384014168E+002,9.789477846844220E+001,
8.345872936468233E+006,1.517245453357118E+002,9.793080192559690E+001,
8.395847923961980E+006,1.523062877057074E+002,9.804977241467806E+001,
8.445822911455728E+006,1.528250421543424E+002,9.827261495722229E+001,
8.495797898949474E+006,1.533982312362408E+002,9.841838973409207E+001,
8.545772886443222E+006,1.539599363455376E+002,9.854020086440428E+001,
8.595747873936968E+006,1.546136651176617E+002,9.866161462429024E+001,
8.645722861430714E+006,1.551322206404776E+002,9.880585252822056E+001,
8.695697848924462E+006,1.557264574846524E+002,9.889468649610370E+001,
8.745672836418208E+006,1.562751671230363E+002,9.915836556468696E+001,
8.795647823911956E+006,1.568877407032016E+002,9.933464832816441E+001,
8.845622811405702E+006,1.573542071999702E+002,9.938703234230535E+001,
8.895597798899449E+006,1.579993542538952E+002,9.950055695997153E+001,
8.945572786393195E+006,1.585777203244101E+002,9.957289058403995E+001,
8.995547773886943E+006,1.591665612125640E+002,9.973864458458640E+001,
9.045522761380689E+006,1.597694100564123E+002,9.983065898407119E+001,
9.095497748874437E+006,1.603435924053191E+002,9.990859206157488E+001,
9.145472736368183E+006,1.609006680759193E+002,1.000476930870474E+002,
9.195447723861931E+006,1.614179669080232E+002,1.001631759094693E+002,
9.245422711355677E+006,1.621072694358474E+002,1.002837792135074E+002,
9.295397698849425E+006,1.625698063801573E+002,1.004558980455533E+002,
9.345372686343171E+006,1.631184893412591E+002,1.004838788944700E+002,
9.395347673836919E+006,1.637048682498089E+002,1.006297741730660E+002,
9.445322661330665E+006,1.642799039374229E+002,1.006771129079550E+002,
9.495297648824412E+006,1.648763563822464E+002,1.007691487209636E+002,
9.545272636318158E+006,1.654427035303043E+002,1.009653434723028E+002,
9.595247623811906E+006,1.659957584638570E+002,1.010012120534125E+002,
9.645222611305652E+006,1.665735524623832E+002,1.011314067784484E+002,
9.695197598799400E+006,1.671557072882816E+002,1.012236721580748E+002,
9.745172586293146E+006,1.677268456556097E+002,1.012992650010354E+002,
9.795147573786892E+006,1.683011259200835E+002,1.013243822576873E+002,
9.845122561280640E+006,1.687755318023585E+002,1.014396486008119E+002,
9.895097548774386E+006,1.693785293604903E+002,1.014420619704183E+002,
9.945072536268134E+006,1.698666802821209E+002,1.017077605834506E+002,
9.995047523761880E+006,1.706226436240738E+002,1.016957660174549E+002,
1.004502251125563E+007,1.711258370480142E+002,1.017617488942610E+002,
1.009499749874937E+007,1.716726029329338E+002,1.019551401410996E+002,
1.014497248624312E+007,1.722459933575507E+002,1.019456548774616E+002,
1.019494747373687E+007,1.728310000599161E+002,1.019756672304937E+002,
1.024492246123062E+007,1.733905008854579E+002,1.021686358055660E+002,
1.029489744872436E+007,1.739720263889701E+002,1.021552631006187E+002,
1.034487243621811E+007,1.745461567683625E+002,1.021538248218590E+002,
1.039484742371186E+007,1.750889429362866E+002,1.022257581541848E+002,
1.044482241120560E+007,1.756607771883205E+002,1.022385872828401E+002,
1.049479739869935E+007,1.762291874591811E+002,1.023596462569493E+002,
1.054477238619310E+007,1.768884882331336E+002,1.023166890090098E+002,
1.059474737368684E+007,1.773951052119852E+002,1.024502185357641E+002,
1.064472236118059E+007,1.779237673109939E+002,1.024974927956317E+002,
1.069469734867434E+007,1.784583419272041E+002,1.026163752873189E+002,
1.074467233616808E+007,1.791723365522263E+002,1.027343053252573E+002,
1.079464732366183E+007,1.796511932413525E+002,1.026025044965451E+002,
1.084462231115558E+007,1.802938140230249E+002,1.026218889752688E+002,
1.089459729864932E+007,1.807505194412802E+002,1.026886982801590E+002,
1.094457228614307E+007,1.814000031152956E+002,1.028110253633265E+002,
1.099454727363682E+007,1.819715198132446E+002,1.027107995134798E+002,
1.104452226113056E+007,1.824533281523353E+002,1.029185290136666E+002,
1.109449724862431E+007,1.830624654957181E+002,1.028013994617732E+002,
1.114447223611806E+007,1.836834715677311E+002,1.029512564303355E+002,
1.119444722361181E+007,1.841357551812777E+002,1.030130505429387E+002,
1.124442221110555E+007,1.847259675835287E+002,1.029095947410045E+002,
1.129439719859930E+007,1.853190781867728E+002,1.029256847497792E+002,
1.134437218609305E+007,1.859460883757166E+002,1.030641674513849E+002,
1.139434717358679E+007,1.865042933811848E+002,1.030571185212947E+002,
1.144432216108054E+007,1.870665961829141E+002,1.030861083544142E+002,
1.149429714857429E+007,1.875344523786151E+002,1.030749769993521E+002,
1.154427213606803E+007,1.882699596067484E+002,1.030674663552101E+002,
1.159424712356178E+007,1.887124681144547E+002,1.031991648180233E+002,
1.164422211105553E+007,1.893415970126899E+002,1.030716221280197E+002,
1.169419709854928E+007,1.900574512156551E+002,1.031634934622802E+002,
1.174417208604302E+007,1.905186358245734E+002,1.030752000911400E+002,
1.179414707353677E+007,1.911408648962131E+002,1.031861372905378E+002,
1.184412206103052E+007,1.917266395987934E+002,1.030434093168672E+002,
1.189409704852426E+007,1.921308523849189E+002,1.031308821983462E+002,
1.194407203601801E+007,1.926841585636707E+002,1.030627338228784E+002,
1.199404702351175E+007,1.933265267522585E+002,1.031003126748562E+002,
1.204402201100550E+007,1.941624081753791E+002,1.031371795118327E+002,
1.209399699849925E+007,1.945083859490311E+002,1.030388626857128E+002,
1.214397198599300E+007,1.950544169252933E+002,1.030542806722108E+002,
1.219394697348674E+007,1.955089704747772E+002,1.030233675296692E+002,
1.224392196098049E+007,1.962103944896073E+002,1.029300949523795E+002,
1.229389694847424E+007,1.967142453387726E+002,1.030032242451938E+002,
1.234387193596798E+007,1.973146613301855E+002,1.030133782162647E+002,
1.239384692346173E+007,1.979799311233884E+002,1.029555798169778E+002,
1.244382191095548E+007,1.984324072876450E+002,1.029191164597897E+002,
1.249379689844922E+007,1.990811614133585E+002,1.028677373063045E+002,
1.254377188594297E+007,1.997866754437472E+002,1.028807593729960E+002,
1.259374687343672E+007,2.002300671412179E+002,1.028121304319574E+002,
1.264372186093047E+007,2.008379405458749E+002,1.028164306810205E+002,
1.269369684842421E+007,2.013284595673851E+002,1.026115537745968E+002,
1.274367183591796E+007,2.020122577706903E+002,1.026889093903201E+002,
1.279364682341171E+007,2.025964813538913E+002,1.025731682739541E+002,
1.284362181090545E+007,2.030479767415257E+002,1.026002522245377E+002,
1.289359679839920E+007,2.036281666847259E+002,1.026152124509008E+002,
1.294357178589295E+007,2.041667480676254E+002,1.025851131917606E+002,
1.299354677338669E+007,2.047889433720456E+002,1.023894898296942E+002,
1.304352176088044E+007,2.053004950404946E+002,1.024209168011428E+002,
1.309349674837419E+007,2.060165600583455E+002,1.023395627855970E+002,
1.314347173586793E+007,2.065160612758023E+002,1.023574954437661E+002,
1.319344672336168E+007,2.071418046708096E+002,1.021823568180936E+002,
1.324342171085543E+007,2.075860633253277E+002,1.022052420941731E+002,
1.329339669834917E+007,2.082950466603079E+002,1.020436537762058E+002,
1.334337168584292E+007,2.087264902247985E+002,1.020685344225828E+002,
1.339334667333667E+007,2.092303464567894E+002,1.018876146102101E+002,
1.344332166083041E+007,2.099800361262315E+002,1.018997272451691E+002,
1.349329664832416E+007,2.104654829065957E+002,1.017574394609350E+002,
1.354327163581791E+007,2.111282186672203E+002,1.016369779974687E+002,
1.359324662331166E+007,2.116723287962187E+002,1.019085832070024E+002,
1.364322161080540E+007,2.120639290876047E+002,1.015017258062136E+002,
1.369319659829915E+007,2.127096502849703E+002,1.016028858402415E+002,
1.374317158579290E+007,2.133315365494730E+002,1.013671383637093E+002,
1.379314657328664E+007,2.138654703313091E+002,1.013806402691149E+002,
1.384312156078039E+007,2.145409703911543E+002,1.011552733149432E+002,
1.389309654827414E+007,2.150204284280342E+002,1.010964002107846E+002,
1.394307153576788E+007,2.155677600644743E+002,1.010496446574396E+002,
1.399304652326163E+007,2.161510793654980E+002,1.009994887688256E+002,
1.404302151075538E+007,2.166708956329930E+002,1.008412254368903E+002,
