% Version 1.00
%
% Ref Impedances: Z01: 50, Z02: 50
% 
%freq[Hz];re:Trc2_Z<-S11[Ohm];im:Trc2_Z<-S11[Ohm];
1.000000000000000E+005,2.886688393618226E-002,7.357262167963495E-001,
1.499749874937469E+005,3.201178544662549E-002,1.093700901507337E+000,
1.999499749874937E+005,3.941334433330986E-002,1.456259559668924E+000,
2.499249624812406E+005,4.756258984567974E-002,1.816083908603843E+000,
2.998999499749875E+005,5.723753778233318E-002,2.176868057042642E+000,
3.498749374687343E+005,6.960738905710938E-002,2.530740394226900E+000,
3.998499249624813E+005,8.238010578000754E-002,2.886937543743899E+000,
4.498249124562281E+005,8.629291957625633E-002,3.241868651488865E+000,
4.997998999499750E+005,9.819360235480820E-002,3.597917300832165E+000,
5.497748874437218E+005,1.181560206231160E-001,3.955410627659496E+000,
5.997498749374687E+005,1.178898867378426E-001,4.307728891529607E+000,
6.497248624312156E+005,1.314092530628372E-001,4.669547524334497E+000,
6.996998499249625E+005,1.554979523506564E-001,5.018257188315379E+000,
7.496748374187093E+005,1.627554505458377E-001,5.370597860783577E+000,
7.996498249124562E+005,1.770047720013048E-001,5.721663874087565E+000,
8.496248124062030E+005,1.938723413176832E-001,6.074844420510649E+000,
8.995997998999499E+005,2.054984445656283E-001,6.437991100801088E+000,
9.495747873936968E+005,2.193867115018046E-001,6.782466552574504E+000,
9.995497748874436E+005,2.324049553964158E-001,7.128896193894976E+000,
1.049524762381190E+006,2.493837254469697E-001,7.483629510729744E+000,
1.099499749874937E+006,2.688358421426582E-001,7.835124736033612E+000,
1.149474737368684E+006,2.936966576614581E-001,8.183450047608394E+000,
1.199449724862431E+006,3.056863135932252E-001,8.534837286476424E+000,
1.249424712356178E+006,3.271776842686780E-001,8.884811911964718E+000,
1.299399699849925E+006,3.450941184900825E-001,9.227404665269679E+000,
1.349374687343672E+006,3.630869875240881E-001,9.580899873905320E+000,
1.399349674837419E+006,3.797301187149252E-001,9.930951043842301E+000,
1.449324662331166E+006,3.958997877833342E-001,1.028039517608471E+001,
1.499299649824912E+006,4.177999929001882E-001,1.062690220176970E+001,
1.549274637318659E+006,4.336195154589145E-001,1.097309587190307E+001,
1.599249624812406E+006,4.543154547870028E-001,1.131971031668582E+001,
1.649224612306153E+006,4.707036234122526E-001,1.167221678836611E+001,
1.699199599799900E+006,4.948253182061063E-001,1.201411157828258E+001,
1.749174587293647E+006,5.156426355315584E-001,1.236816808386759E+001,
1.799149574787394E+006,5.396536421286364E-001,1.271557460041037E+001,
1.849124562281140E+006,5.633565624066581E-001,1.306161868841990E+001,
1.899099549774887E+006,5.773952118395316E-001,1.340815195912632E+001,
1.949074537268634E+006,6.060904838720056E-001,1.375354032691753E+001,
1.999049524762381E+006,6.187792134443227E-001,1.409927738634259E+001,
2.049024512256128E+006,6.450044512092973E-001,1.444444835745712E+001,
2.098999499749875E+006,6.619183016768342E-001,1.479238755161186E+001,
2.148974487243622E+006,6.928222714381287E-001,1.513494676888923E+001,
2.198949474737369E+006,7.118305255405044E-001,1.548597877738648E+001,
2.248924462231115E+006,7.310865059068166E-001,1.582865477161082E+001,
2.298899449724862E+006,7.461276013982913E-001,1.618507829975312E+001,
2.348874437218609E+006,7.818046997402834E-001,1.652313517185771E+001,
2.398849424712356E+006,8.046523777563028E-001,1.687283338040429E+001,
2.448824412206103E+006,8.296477705278318E-001,1.720678583675295E+001,
2.498799399699850E+006,8.465319380391163E-001,1.755388700562572E+001,
2.548774387193597E+006,8.666733263190762E-001,1.790828598194934E+001,
2.598749374687343E+006,8.939575307150230E-001,1.825221611926497E+001,
2.648724362181090E+006,9.297758874819190E-001,1.858724106056201E+001,
2.698699349674837E+006,9.492199661532615E-001,1.893916923863937E+001,
2.748674337168584E+006,9.715884091374708E-001,1.927431278608731E+001,
2.798649324662331E+006,9.998044690526061E-001,1.962579919771513E+001,
2.848624312156078E+006,1.028431589033502E+000,1.997257882089350E+001,
2.898599299649825E+006,1.060255632340484E+000,2.031961450261878E+001,
2.948574287143572E+006,1.085164043137614E+000,2.066871300661279E+001,
2.998549274637319E+006,1.112609041723022E+000,2.100410447773824E+001,
3.048524262131065E+006,1.145721890815897E+000,2.135027868870050E+001,
3.098499249624812E+006,1.165285924443205E+000,2.168942420508291E+001,
3.148474237118559E+006,1.196390439945951E+000,2.203291886950144E+001,
3.198449224612306E+006,1.213012604375591E+000,2.238169337888645E+001,
3.248424212106053E+006,1.249625549735467E+000,2.273725462526733E+001,
3.298399199599800E+006,1.274441130792361E+000,2.306648539607347E+001,
3.348374187093547E+006,1.305067969990037E+000,2.342097007466612E+001,
3.398349174587294E+006,1.336368593776841E+000,2.375910977971740E+001,
3.448324162081040E+006,1.367894106941818E+000,2.410506913091140E+001,
3.498299149574787E+006,1.394909501979728E+000,2.445663336216607E+001,
3.548274137068534E+006,1.432715095556942E+000,2.480047193620857E+001,
3.598249124562281E+006,1.445159400689896E+000,2.513579277323750E+001,
3.648224112056028E+006,1.478461692298076E+000,2.548716052930387E+001,
3.698199099549775E+006,1.515321777081382E+000,2.583308636614694E+001,
3.748174087043522E+006,1.550944630311310E+000,2.617262183275437E+001,
3.798149074537268E+006,1.579072648713779E+000,2.651538058083941E+001,
3.848124062031015E+006,1.600604245335150E+000,2.686101649224459E+001,
3.898099049524762E+006,1.639217317801589E+000,2.720435747510446E+001,
3.948074037018509E+006,1.663822994851089E+000,2.755214459436971E+001,
3.998049024512256E+006,1.705268232408020E+000,2.790388754481290E+001,
4.048024012006003E+006,1.742453927638733E+000,2.823597086522419E+001,
4.097998999499749E+006,1.772940598553552E+000,2.857872323353447E+001,
4.147973986993496E+006,1.794391221407728E+000,2.892780493112930E+001,
4.197948974487243E+006,1.835990566103971E+000,2.927580533381159E+001,
4.247923961980990E+006,1.862302717863307E+000,2.960808642833498E+001,
4.297898949474737E+006,1.885332417627863E+000,2.995735168951910E+001,
4.347873936968484E+006,1.931036565102873E+000,3.030207228448766E+001,
4.397848924462231E+006,1.971800109954456E+000,3.064206335429888E+001,
4.447823911955978E+006,1.991249463439433E+000,3.098653090850171E+001,
4.497798899449725E+006,2.038106735615737E+000,3.133151262190533E+001,
4.547773886943472E+006,2.067486295235224E+000,3.168088101367614E+001,
4.597748874437219E+006,2.109813055519728E+000,3.202583915394227E+001,
4.647723861930965E+006,2.134900112344087E+000,3.237306854058926E+001,
4.697698849424712E+006,2.170526690358061E+000,3.272019585048136E+001,
4.747673836918459E+006,2.221415917215457E+000,3.305943261110458E+001,
4.797648824412206E+006,2.238788964793147E+000,3.340755976003887E+001,
4.847623811905953E+006,2.285204038979153E+000,3.375513347068772E+001,
4.897598799399700E+006,2.324477146261877E+000,3.410674373770588E+001,
4.947573786893446E+006,2.347724152052840E+000,3.444807100233495E+001,
4.997548774387193E+006,2.396722575037512E+000,3.479993066613941E+001,
5.047523761880940E+006,2.435763389855747E+000,3.514055353970134E+001,
5.097498749374687E+006,2.472017569794321E+000,3.547802341545696E+001,
5.147473736868434E+006,2.516621559053574E+000,3.581165576584369E+001,
5.197448724362181E+006,2.557749621421053E+000,3.615775606966837E+001,
5.247423711855928E+006,2.594153234956621E+000,3.650310477815442E+001,
5.297398699349674E+006,2.619784305080886E+000,3.685252373541523E+001,
5.347373686843421E+006,2.658576865281069E+000,3.720778196073740E+001,
5.397348674337168E+006,2.705627789251685E+000,3.753678676235658E+001,
5.447323661830915E+006,2.733906304520855E+000,3.788800225737192E+001,
5.497298649324662E+006,2.766269767644610E+000,3.823065603158115E+001,
5.547273636818409E+006,2.811519004911495E+000,3.857958377576004E+001,
5.597248624312156E+006,2.849637003062925E+000,3.892748260839775E+001,
5.647223611805903E+006,2.883998239163446E+000,3.927492271517939E+001,
5.697198599299650E+006,2.916375828223647E+000,3.963285343276575E+001,
5.747173586793397E+006,2.967480586311240E+000,3.997734802461562E+001,
5.797148574287144E+006,3.004640226042019E+000,4.032391383228359E+001,
5.847123561780890E+006,3.038287508015413E+000,4.066055531653351E+001,
5.897098549274637E+006,3.096348023969098E+000,4.102312205198115E+001,
5.947073536768384E+006,3.124708939679694E+000,4.136757472474210E+001,
5.997048524262130E+006,3.172473465750163E+000,4.171396914629457E+001,
6.047023511755877E+006,3.215084933175532E+000,4.205662253124914E+001,
6.096998499249624E+006,3.233100766333894E+000,4.241468952952376E+001,
6.146973486743371E+006,3.288938768079838E+000,4.277135819411820E+001,
6.196948474237118E+006,3.331723914314631E+000,4.310591209859900E+001,
6.246923461730865E+006,3.372450559200335E+000,4.345712110183864E+001,
6.296898449224612E+006,3.418713484029837E+000,4.379765517613742E+001,
6.346873436718359E+006,3.463029196203336E+000,4.416438085242762E+001,
6.396848424212106E+006,3.521881476714138E+000,4.449436412115112E+001,
6.446823411705853E+006,3.558140239409576E+000,4.484723971025521E+001,
6.496798399199599E+006,3.608044832966166E+000,4.520231866973504E+001,
6.546773386693346E+006,3.645375593038919E+000,4.555537563819323E+001,
6.596748374187093E+006,3.700105147555288E+000,4.590967858644179E+001,
6.646723361680840E+006,3.737753173737760E+000,4.626218188147082E+001,
6.696698349174587E+006,3.784526363491600E+000,4.662473494615781E+001,
6.746673336668334E+006,3.838899903218465E+000,4.698339701023083E+001,
6.796648324162081E+006,3.885289999634944E+000,4.730299480848176E+001,
6.846623311655828E+006,3.918831266789266E+000,4.768653909256145E+001,
6.896598299149575E+006,3.986395833482986E+000,4.802932492233418E+001,
6.946573286643322E+006,4.033134124528810E+000,4.837702828898940E+001,
6.996548274137069E+006,4.082719619304579E+000,4.871908049809913E+001,
7.046523261630815E+006,4.145322212903015E+000,4.906298948481435E+001,
7.096498249124561E+006,4.189443503229614E+000,4.942024243517749E+001,
7.146473236618308E+006,4.232762583112034E+000,4.978334222523972E+001,
7.196448224112055E+006,4.279795676420187E+000,5.011965589456315E+001,
7.246423211605802E+006,4.314368974381933E+000,5.047482470930559E+001,
7.296398199099549E+006,4.358178316699918E+000,5.082484336436895E+001,
7.346373186593296E+006,4.420188519906652E+000,5.117084882945623E+001,
7.396348174087043E+006,4.470938990938722E+000,5.154416449950885E+001,
7.446323161580790E+006,4.533798474968194E+000,5.188906785321387E+001,
7.496298149074537E+006,4.614515926083770E+000,5.221961873885110E+001,
7.546273136568284E+006,4.650845292212749E+000,5.254142921456846E+001,
7.596248124062031E+006,4.691101874227001E+000,5.288852374173678E+001,
7.646223111555778E+006,4.726048221792118E+000,5.324252719562143E+001,
7.696198099049524E+006,4.759746202312365E+000,5.358800195492963E+001,
7.746173086543271E+006,4.797525622795806E+000,5.393187557580180E+001,
7.796148074037018E+006,4.855558098888688E+000,5.430082455714138E+001,
7.846123061530765E+006,4.878186740302853E+000,5.465634165976540E+001,
7.896098049024512E+006,4.951714498076152E+000,5.502494023855814E+001,
7.946073036518259E+006,4.998591186869999E+000,5.537934948439445E+001,
7.996048024012006E+006,5.056041679014501E+000,5.572784738130693E+001,
8.046023011505753E+006,5.095023874763047E+000,5.607789665998732E+001,
8.095997998999499E+006,5.146003468469874E+000,5.645137779200383E+001,
8.145972986493246E+006,5.169350443807669E+000,5.679508391381505E+001,
8.195947973986993E+006,5.250738498587814E+000,5.716124351048433E+001,
8.245922961480740E+006,5.279895276945459E+000,5.751627382967913E+001,
8.295897948974486E+006,5.319796766763375E+000,5.788091970719309E+001,
8.345872936468233E+006,5.397089339065019E+000,5.825349479469036E+001,
8.395847923961980E+006,5.439475634342665E+000,5.858682128633484E+001,
8.445822911455728E+006,5.481820635433538E+000,5.894041556288006E+001,
8.495797898949474E+006,5.534241643112567E+000,5.931556710026999E+001,
8.545772886443222E+006,5.601088834267587E+000,5.967245548933318E+001,
8.595747873936968E+006,5.662259399171374E+000,6.004577396998987E+001,
8.645722861430714E+006,5.695359320283647E+000,6.039532634213645E+001,
8.695697848924462E+006,5.774527214600348E+000,6.079111163943263E+001,
8.745672836418208E+006,5.809714203585496E+000,6.113169609933095E+001,
8.795647823911956E+006,5.844516324099320E+000,6.150547168701993E+001,
8.845622811405702E+006,5.934353774556663E+000,6.184123809051729E+001,
8.895597798899449E+006,5.993645405431279E+000,6.224074296750480E+001,
8.945572786393195E+006,6.053208472410585E+000,6.257459476622266E+001,
8.995547773886943E+006,6.082470227750945E+000,6.294956983434969E+001,
9.045522761380689E+006,6.156911331983130E+000,6.331722567468060E+001,
9.095497748874437E+006,6.213311300391317E+000,6.367765633072595E+001,
9.145472736368183E+006,6.268432226778384E+000,6.405219466729905E+001,
9.195447723861931E+006,6.339711699314391E+000,6.438289848499547E+001,
9.245422711355677E+006,6.389767831662457E+000,6.476244966987798E+001,
9.295397698849425E+006,6.436992922147310E+000,6.511439575361095E+001,
9.345372686343171E+006,6.500276414360483E+000,6.549514957205105E+001,
9.395347673836919E+006,6.556487492139127E+000,6.585607833300399E+001,
9.445322661330665E+006,6.618373802336898E+000,6.623615505693185E+001,
9.495297648824412E+006,6.683842782913684E+000,6.659821942070130E+001,
9.545272636318158E+006,6.737891324705628E+000,6.696382038582422E+001,
9.595247623811906E+006,6.812168739365610E+000,6.734901511468647E+001,
9.645222611305652E+006,6.857766982150487E+000,6.771484349385560E+001,
9.695197598799400E+006,6.924778956332639E+000,6.810001067120170E+001,
9.745172586293146E+006,6.987360911365442E+000,6.845292958828409E+001,
9.795147573786892E+006,7.056284735550706E+000,6.882664473957696E+001,
9.845122561280640E+006,7.104003696948901E+000,6.917053090540038E+001,
9.895097548774386E+006,7.180577097559289E+000,6.954947930366281E+001,
9.945072536268134E+006,7.219172193573147E+000,6.993172397365498E+001,
9.995047523761880E+006,7.324904617870843E+000,7.030750506249007E+001,
1.004502251125563E+007,7.356494942194382E+000,7.067146724784523E+001,
1.009499749874937E+007,7.411304615009245E+000,7.103818234010687E+001,
1.014497248624312E+007,7.500374763772604E+000,7.142152563605264E+001,
1.019494747373687E+007,7.552696955192436E+000,7.179453371723152E+001,
1.024492246123062E+007,7.606193882018109E+000,7.216873983731644E+001,
1.029489744872436E+007,7.691278957454530E+000,7.253098214544849E+001,
1.034487243621811E+007,7.768282049079657E+000,7.291009750042316E+001,
1.039484742371186E+007,7.810219476531767E+000,7.327862162658688E+001,
1.044482241120560E+007,7.906666251996668E+000,7.364858231088650E+001,
1.049479739869935E+007,7.964168854262079E+000,7.401287618401865E+001,
1.054477238619310E+007,8.047596738864710E+000,7.437220263602514E+001,
1.059474737368684E+007,8.084814711119778E+000,7.473436637449211E+001,
1.064472236118059E+007,8.154290567508868E+000,7.510488085656304E+001,
1.069469734867434E+007,8.214701746953628E+000,7.546844982945679E+001,
1.074467233616808E+007,8.261399943221017E+000,7.585373552910521E+001,
1.079464732366183E+007,8.346160613471426E+000,7.624259557175331E+001,
1.084462231115558E+007,8.406080445373455E+000,7.662069427423849E+001,
1.089459729864932E+007,8.485887270846993E+000,7.699019236377075E+001,
1.094457228614307E+007,8.527577623340463E+000,7.737489112580114E+001,
1.099454727363682E+007,8.597187121030762E+000,7.775368684838682E+001,
1.104452226113056E+007,8.657759246478607E+000,7.813655320082283E+001,
1.109449724862431E+007,8.762575895371402E+000,7.851674722892503E+001,
1.114447223611806E+007,8.824197412147672E+000,7.889033186568108E+001,
1.119444722361181E+007,8.867346475076362E+000,7.924376974408008E+001,
1.124442221110555E+007,8.945528139814810E+000,7.966027631558478E+001,
1.129439719859930E+007,9.006556541619982E+000,8.005005404435195E+001,
1.134437218609305E+007,9.067665645023155E+000,8.042421665074072E+001,
1.139434717358679E+007,9.168008904337235E+000,8.079854618916853E+001,
1.144432216108054E+007,9.208371014745925E+000,8.117232535538113E+001,
1.149429714857429E+007,9.272298963604268E+000,8.159369154814870E+001,
1.154427213606803E+007,9.403207077760527E+000,8.198840185550070E+001,
1.159424712356178E+007,9.441094796238790E+000,8.233701581075702E+001,
1.164422211105553E+007,9.537375966222259E+000,8.274623770888336E+001,
1.169419709854928E+007,9.564390421954835E+000,8.314169152762193E+001,
1.174417208604302E+007,9.663405611326638E+000,8.352786267977753E+001,
1.179414707353677E+007,9.710075455828422E+000,8.391570768269237E+001,
1.184412206103052E+007,9.805105983389577E+000,8.432253486702149E+001,
1.189409704852426E+007,9.872290620688752E+000,8.469211315919614E+001,
1.194407203601801E+007,9.954198724275173E+000,8.507555370141655E+001,
1.199404702351175E+007,1.005334858967322E+001,8.548037802194125E+001,
1.204402201100550E+007,1.010754250181726E+001,8.588648718144815E+001,
1.209399699849925E+007,1.019457009808555E+001,8.625274117577641E+001,
1.214397198599300E+007,1.028012007811757E+001,8.661931760448535E+001,
1.219394697348674E+007,1.033024466830889E+001,8.702006159234981E+001,
1.224392196098049E+007,1.045735732231887E+001,8.742610440588869E+001,
1.229389694847424E+007,1.049159946520586E+001,8.783523359782436E+001,
1.234387193596798E+007,1.059715852497322E+001,8.818564632349012E+001,
1.239384692346173E+007,1.066049032663010E+001,8.863002323680026E+001,
1.244382191095548E+007,1.072256510802171E+001,8.901498937643835E+001,
1.249379689844922E+007,1.085792043020505E+001,8.943744906844940E+001,
1.254377188594297E+007,1.091654936912764E+001,8.983912019292275E+001,
1.259374687343672E+007,1.100840361354002E+001,9.021916082129279E+001,
1.264372186093047E+007,1.105240997440574E+001,9.060497501526994E+001,
1.269369684842421E+007,1.116558267364745E+001,9.098478419651394E+001,
1.274367183591796E+007,1.124078004208161E+001,9.138253016021962E+001,
1.279364682341171E+007,1.131997523965185E+001,9.180154103041217E+001,
1.284362181090545E+007,1.141786677075428E+001,9.216705767443527E+001,
1.289359679839920E+007,1.148242278195488E+001,9.260257056366764E+001,
1.294357178589295E+007,1.159019667401958E+001,9.299189962799551E+001,
1.299354677338669E+007,1.164523471517223E+001,9.335586547148228E+001,
1.304352176088044E+007,1.169961471642895E+001,9.381793490955091E+001,
1.309349674837419E+007,1.179915300494813E+001,9.424142670365386E+001,
1.314347173586793E+007,1.189095800379931E+001,9.460646996993661E+001,
1.319344672336168E+007,1.202156418126575E+001,9.503085107106612E+001,
1.324342171085543E+007,1.208273329225937E+001,9.540279865415738E+001,
1.329339669834917E+007,1.215384376344282E+001,9.585201001093198E+001,
1.334337168584292E+007,1.225815584384035E+001,9.627969111788408E+001,
1.339334667333667E+007,1.236633614338235E+001,9.665362311023331E+001,
1.344332166083041E+007,1.244296567510633E+001,9.710780038222953E+001,
1.349329664832416E+007,1.252251036029378E+001,9.747297491814328E+001,
1.354327163581791E+007,1.262806574843423E+001,9.794293482682215E+001,
1.359324662331166E+007,1.266217289400694E+001,9.828599413714069E+001,
1.364322161080540E+007,1.280532217718907E+001,9.870109584734584E+001,
1.369319659829915E+007,1.288142419077222E+001,9.913339067086466E+001,
1.374317158579290E+007,1.297757958475238E+001,9.955478470384335E+001,
1.379314657328664E+007,1.307373144274439E+001,9.996994551803498E+001,
1.384312156078039E+007,1.318713363216759E+001,1.004033472156057E+002,
1.389309654827414E+007,1.325078141732562E+001,1.007838985516509E+002,
1.394307153576788E+007,1.334717767756882E+001,1.012060885300222E+002,
1.399304652326163E+007,1.345877742883725E+001,1.016198212843576E+002,
1.404302151075538E+007,1.352788764782560E+001,1.020599802617179E+002,
