% Version 1.00
%
% Ref Impedances: Z01: 50, Z02: 50
% 
%freq[Hz];re:Trc2_Z<-S11[Ohm];im:Trc2_Z<-S11[Ohm];
1.000000000000000E+005,7.643537714032992E+000,1.934791379916765E+001,
1.499749874937469E+005,1.343436140428746E+001,2.481063346912164E+001,
1.999499749874937E+005,1.883481585393735E+001,2.833403123778838E+001,
2.499249624812406E+005,2.351954675584744E+001,3.066533111709378E+001,
2.998999499749875E+005,2.755419485380627E+001,3.228617341687536E+001,
3.498749374687343E+005,3.097822667981637E+001,3.345579697881561E+001,
3.998499249624813E+005,3.388987085107705E+001,3.439895869785819E+001,
4.498249124562281E+005,3.637457982090751E+001,3.522744784134965E+001,
4.997998999499750E+005,3.858658542468927E+001,3.600879399591533E+001,
5.497748874437218E+005,4.055732434577016E+001,3.678423531572373E+001,
5.997498749374687E+005,4.236968803476803E+001,3.752991660604309E+001,
6.497248624312156E+005,4.404196950647827E+001,3.826822441245486E+001,
6.996998499249625E+005,4.558928599002815E+001,3.894544568298112E+001,
7.496748374187093E+005,4.699374391532012E+001,3.964308837094616E+001,
7.996498249124562E+005,4.832053565592079E+001,4.039117134199348E+001,
8.496248124062030E+005,4.956403305420651E+001,4.110466596677873E+001,
8.995997998999499E+005,5.074570227561203E+001,4.188572690475233E+001,
9.495747873936968E+005,5.193470413880853E+001,4.264893905521990E+001,
9.995497748874436E+005,5.304676143752555E+001,4.339695064994981E+001,
1.049524762381190E+006,5.417755071065580E+001,4.415058711253003E+001,
1.099499749874937E+006,5.527437105153211E+001,4.489025168838850E+001,
1.149474737368684E+006,5.635869010985315E+001,4.558225553043144E+001,
1.199449724862431E+006,5.738272267061932E+001,4.628914509500181E+001,
1.249424712356178E+006,5.838852825041482E+001,4.695807175898580E+001,
1.299399699849925E+006,5.934183149724202E+001,4.763996562772059E+001,
1.349374687343672E+006,6.030187270833518E+001,4.833584740076903E+001,
1.399349674837419E+006,6.118926568556015E+001,4.902862209704223E+001,
1.449324662331166E+006,6.211842107827814E+001,4.974609608899156E+001,
1.499299649824912E+006,6.302799948880223E+001,5.043307663661422E+001,
1.549274637318659E+006,6.394649889634344E+001,5.115240044419578E+001,
1.599249624812406E+006,6.484804197590898E+001,5.180087092994285E+001,
1.649224612306153E+006,6.574751458422780E+001,5.245441937277430E+001,
1.699199599799900E+006,6.664150802878697E+001,5.311683303302054E+001,
1.749174587293647E+006,6.754928617182239E+001,5.374680370018199E+001,
1.799149574787394E+006,6.839977970035503E+001,5.434199716759414E+001,
1.849124562281140E+006,6.927682782692254E+001,5.491711348167248E+001,
1.899099549774887E+006,7.013538486880007E+001,5.551214344562971E+001,
1.949074537268634E+006,7.093728195851953E+001,5.605185824786297E+001,
1.999049524762381E+006,7.173196204743459E+001,5.663047236585185E+001,
2.049024512256128E+006,7.252871235313931E+001,5.723221984888203E+001,
2.098999499749875E+006,7.329217266114833E+001,5.780285715500015E+001,
2.148974487243622E+006,7.408846178576904E+001,5.837033963037054E+001,
2.198949474737369E+006,7.485238914695923E+001,5.892279811664921E+001,
2.248924462231115E+006,7.562377100376659E+001,5.949338647994292E+001,
2.298899449724862E+006,7.644126102494094E+001,6.007468673171186E+001,
2.348874437218609E+006,7.722727847249612E+001,6.061035864979451E+001,
2.398849424712356E+006,7.801612698463288E+001,6.115168170672356E+001,
2.448824412206103E+006,7.875630660603032E+001,6.165395738589191E+001,
2.498799399699850E+006,7.955845575608457E+001,6.218993822856288E+001,
2.548774387193597E+006,8.031176211037206E+001,6.268510868249832E+001,
2.598749374687343E+006,8.108798087159647E+001,6.314619399071334E+001,
2.648724362181090E+006,8.181860060482596E+001,6.362692085583631E+001,
2.698699349674837E+006,8.258107698830514E+001,6.409267659446620E+001,
2.748674337168584E+006,8.324146155320864E+001,6.453005914394043E+001,
2.798649324662331E+006,8.400828236658646E+001,6.499000094025260E+001,
2.848624312156078E+006,8.467330430090468E+001,6.546849115712558E+001,
2.898599299649825E+006,8.540806544541927E+001,6.589079349591471E+001,
2.948574287143572E+006,8.611262549349580E+001,6.634201917057337E+001,
2.998549274637319E+006,8.680822556717509E+001,6.681084316593942E+001,
3.048524262131065E+006,8.747594686590779E+001,6.728217619034027E+001,
3.098499249624812E+006,8.817445346658283E+001,6.773464396937558E+001,
3.148474237118559E+006,8.885255915448447E+001,6.815069992554064E+001,
3.198449224612306E+006,8.954319556852578E+001,6.860700508555445E+001,
3.248424212106053E+006,9.027710067225029E+001,6.908773381735929E+001,
3.298399199599800E+006,9.089435028331899E+001,6.945976574917751E+001,
3.348374187093547E+006,9.160961325395252E+001,6.989746406043842E+001,
3.398349174587294E+006,9.227672860638442E+001,7.029413037889992E+001,
3.448324162081040E+006,9.300363575965763E+001,7.069506131177020E+001,
3.498299149574787E+006,9.367169540448211E+001,7.110831764154553E+001,
3.548274137068534E+006,9.438470427350784E+001,7.151138132094170E+001,
3.598249124562281E+006,9.499443120387646E+001,7.191011902622684E+001,
3.648224112056028E+006,9.572894885068443E+001,7.227046779694290E+001,
3.698199099549775E+006,9.635945947097920E+001,7.264654018352711E+001,
3.748174087043522E+006,9.700676369092290E+001,7.300180355539027E+001,
3.798149074537268E+006,9.763916881220898E+001,7.340885580092584E+001,
3.848124062031015E+006,9.824273770473839E+001,7.379132073936729E+001,
3.898099049524762E+006,9.888833921570065E+001,7.411029472868611E+001,
3.948074037018509E+006,9.956099612624611E+001,7.450830493531146E+001,
3.998049024512256E+006,1.002748789740359E+002,7.489744688678951E+001,
4.048024012006003E+006,1.008099414175569E+002,7.518908115474163E+001,
4.097998999499749E+006,1.014650765495299E+002,7.556008056691842E+001,
4.147973986993496E+006,1.020493687068873E+002,7.597500186486303E+001,
4.197948974487243E+006,1.027332701833427E+002,7.632036098310383E+001,
4.247923961980990E+006,1.032901576623160E+002,7.664040299464935E+001,
4.297898949474737E+006,1.039447576215982E+002,7.706641312289916E+001,
4.347873936968484E+006,1.045922665224472E+002,7.731289742698725E+001,
4.397848924462231E+006,1.052109673613828E+002,7.762702284288424E+001,
4.447823911955978E+006,1.058361287978071E+002,7.803010064270414E+001,
4.497798899449725E+006,1.064869157280144E+002,7.835254634394843E+001,
4.547773886943472E+006,1.071211370005344E+002,7.870072966260793E+001,
4.597748874437219E+006,1.077475224397081E+002,7.901944898163767E+001,
4.647723861930965E+006,1.083921086842824E+002,7.932950967633433E+001,
4.697698849424712E+006,1.089797613507889E+002,7.963738025576294E+001,
4.747673836918459E+006,1.096157337103371E+002,7.991498963016564E+001,
4.797648824412206E+006,1.101873526244474E+002,8.029767499290180E+001,
4.847623811905953E+006,1.108513926149531E+002,8.055399215475049E+001,
4.897598799399700E+006,1.114374295632781E+002,8.086097011297994E+001,
4.947573786893446E+006,1.120811866401635E+002,8.115245429242729E+001,
4.997548774387193E+006,1.127120255585996E+002,8.140717787009081E+001,
5.047523761880940E+006,1.132602451194516E+002,8.170532116946684E+001,
5.097498749374687E+006,1.138781923912710E+002,8.202450778569749E+001,
5.147473736868434E+006,1.144197101184588E+002,8.227358637650470E+001,
5.197448724362181E+006,1.150407990937777E+002,8.258188207769719E+001,
5.247423711855928E+006,1.156563774176380E+002,8.285543475257698E+001,
5.297398699349674E+006,1.162668367018094E+002,8.318296456506059E+001,
5.347373686843421E+006,1.169050565156909E+002,8.347356266918605E+001,
5.397348674337168E+006,1.174072333134796E+002,8.370859738700112E+001,
5.447323661830915E+006,1.180424036194569E+002,8.396834454458599E+001,
5.497298649324662E+006,1.185646889066722E+002,8.425821001740272E+001,
5.547273636818409E+006,1.191617384811453E+002,8.452022161274711E+001,
5.597248624312156E+006,1.198208200795274E+002,8.479023487620829E+001,
5.647223611805903E+006,1.203735251961083E+002,8.505235055155087E+001,
5.697198599299650E+006,1.210207415448489E+002,8.529914233175440E+001,
5.747173586793397E+006,1.216107697646939E+002,8.558383548449631E+001,
5.797148574287144E+006,1.221874727247315E+002,8.584581325177287E+001,
5.847123561780890E+006,1.227950927339297E+002,8.613015563724893E+001,
5.897098549274637E+006,1.234375066824400E+002,8.627634801608299E+001,
5.947073536768384E+006,1.239718795747873E+002,8.660168356921302E+001,
5.997048524262130E+006,1.246078361471393E+002,8.678257956778620E+001,
6.047023511755877E+006,1.251707916812171E+002,8.706958534611216E+001,
6.096998499249624E+006,1.257229867077323E+002,8.729670873136958E+001,
6.146973486743371E+006,1.263299228126389E+002,8.754432086312160E+001,
6.196948474237118E+006,1.269004151136274E+002,8.768315831001974E+001,
6.246923461730865E+006,1.275177577662524E+002,8.794419074139455E+001,
6.296898449224612E+006,1.280786419621601E+002,8.817333601836094E+001,
6.346873436718359E+006,1.287008177989556E+002,8.842531378563396E+001,
6.396848424212106E+006,1.291941745012409E+002,8.851651779951600E+001,
6.446823411705853E+006,1.297607116007810E+002,8.877498699369846E+001,
6.496798399199599E+006,1.303597488689851E+002,8.905644190709067E+001,
6.546773386693346E+006,1.309495066795824E+002,8.920918334568854E+001,
6.596748374187093E+006,1.315514631080534E+002,8.945240244293409E+001,
6.646723361680840E+006,1.320923790366147E+002,8.963936432403251E+001,
6.696698349174587E+006,1.327253472816336E+002,8.981188720927487E+001,
6.746673336668334E+006,1.332331701936953E+002,9.001747918748571E+001,
6.796648324162081E+006,1.337631355516468E+002,9.024902553182415E+001,
6.846623311655828E+006,1.344178727625467E+002,9.050374671041608E+001,
6.896598299149575E+006,1.348760691617761E+002,9.066018369244128E+001,
6.946573286643322E+006,1.356191854076121E+002,9.081814178616540E+001,
6.996548274137069E+006,1.361680741525690E+002,9.101052269766356E+001,
7.046523261630815E+006,1.366893198074789E+002,9.124909928263666E+001,
7.096498249124561E+006,1.372950095552395E+002,9.141945298440081E+001,
7.146473236618308E+006,1.378221554142292E+002,9.155340735248628E+001,
7.196448224112055E+006,1.383747492092128E+002,9.184033755255885E+001,
7.246423211605802E+006,1.390278897734675E+002,9.203996619879563E+001,
7.296398199099549E+006,1.395549396296269E+002,9.223280333154072E+001,
7.346373186593296E+006,1.401570157532977E+002,9.232426042509577E+001,
7.396348174087043E+006,1.407561944275069E+002,9.247138485040074E+001,
7.446323161580790E+006,1.413026901783377E+002,9.274404234301942E+001,
7.496298149074537E+006,1.418730491412631E+002,9.282530114063972E+001,
7.546273136568284E+006,1.424607940031498E+002,9.308070518012021E+001,
7.596248124062031E+006,1.429583740992719E+002,9.312771244090754E+001,
7.646223111555778E+006,1.436297243719306E+002,9.332005598276416E+001,
7.696198099049524E+006,1.440674790419369E+002,9.350027165760538E+001,
7.746173086543271E+006,1.446944546896475E+002,9.367617508371549E+001,
7.796148074037018E+006,1.452270193403366E+002,9.374522858554713E+001,
7.846123061530765E+006,1.458371250755411E+002,9.402488517183922E+001,
7.896098049024512E+006,1.463888647334018E+002,9.412006374005725E+001,
7.946073036518259E+006,1.470257177460359E+002,9.425409160958374E+001,
7.996048024012006E+006,1.475152705926463E+002,9.433838640060175E+001,
8.046023011505753E+006,1.481147972487515E+002,9.458743867284308E+001,
8.095997998999499E+006,1.487291739444495E+002,9.470970147231321E+001,
8.145972986493246E+006,1.491825447629226E+002,9.490436248194740E+001,
8.195947973986993E+006,1.498114691109080E+002,9.491733757128532E+001,
8.245922961480740E+006,1.503619329661005E+002,9.513846198835898E+001,
8.295897948974486E+006,1.508711606663597E+002,9.528815991637963E+001,
8.345872936468233E+006,1.514415036449296E+002,9.539914783963872E+001,
8.395847923961980E+006,1.520267997185105E+002,9.547187597392808E+001,
8.445822911455728E+006,1.525832967310463E+002,9.563954788652308E+001,
8.495797898949474E+006,1.531065468751741E+002,9.571398367579882E+001,
8.545772886443222E+006,1.536754113315694E+002,9.586691727075187E+001,
8.595747873936968E+006,1.543438881300216E+002,9.605784691074969E+001,
8.645722861430714E+006,1.549449156616211E+002,9.618779602720225E+001,
8.695697848924462E+006,1.554780529511220E+002,9.618821196501619E+001,
8.745672836418208E+006,1.559459865180965E+002,9.636270678168015E+001,
8.795647823911956E+006,1.565833386550363E+002,9.655282676489576E+001,
8.845622811405702E+006,1.571063286575091E+002,9.657657238321214E+001,
8.895597798899449E+006,1.576906630928145E+002,9.667471553889078E+001,
8.945572786393195E+006,1.582735572543199E+002,9.673233530165985E+001,
8.995547773886943E+006,1.588284283154601E+002,9.694572646242277E+001,
9.045522761380689E+006,1.594005472227536E+002,9.702461789282047E+001,
9.095497748874437E+006,1.599142758152447E+002,9.709845273179597E+001,
9.145472736368183E+006,1.605325516324106E+002,9.723183094729289E+001,
9.195447723861931E+006,1.611124973718902E+002,9.724850546220101E+001,
9.245422711355677E+006,1.616581062297929E+002,9.737818652983150E+001,
9.295397698849425E+006,1.621343165687411E+002,9.742444516698022E+001,
9.345372686343171E+006,1.627422280747288E+002,9.758213939326346E+001,
9.395347673836919E+006,1.632570534074617E+002,9.759812701802773E+001,
9.445322661330665E+006,1.639708744173013E+002,9.766666779456945E+001,
9.495297648824412E+006,1.644097892700458E+002,9.771106833452947E+001,
9.545272636318158E+006,1.649576626614780E+002,9.786235723321153E+001,
9.595247623811906E+006,1.656134771919004E+002,9.798960375991513E+001,
9.645222611305652E+006,1.661772099643638E+002,9.802560020233545E+001,
9.695197598799400E+006,1.666810645217190E+002,9.811753425270135E+001,
9.745172586293146E+006,1.672456070363757E+002,9.821871582174713E+001,
9.795147573786892E+006,1.678146585542521E+002,9.826325306815372E+001,
9.845122561280640E+006,1.682614194829145E+002,9.831874489241878E+001,
9.895097548774386E+006,1.689285541498993E+002,9.837077259603906E+001,
9.945072536268134E+006,1.694597548511883E+002,9.853099781100710E+001,
9.995047523761880E+006,1.700834184809439E+002,9.840646100963852E+001,
1.004502251125563E+007,1.706528990780109E+002,9.856097507154425E+001,
1.009499749874937E+007,1.711439885306114E+002,9.869228748344727E+001,
1.014497248624312E+007,1.717173238629719E+002,9.863123786639194E+001,
1.019494747373687E+007,1.723918168245827E+002,9.875304541139744E+001,
1.024492246123062E+007,1.728750568817374E+002,9.879479325649925E+001,
1.029489744872436E+007,1.734241144184857E+002,9.882584706653704E+001,
1.034487243621811E+007,1.738762242551802E+002,9.879678755293256E+001,
1.039484742371186E+007,1.744842990779535E+002,9.896236885739189E+001,
1.044482241120560E+007,1.751171774505777E+002,9.888287221234675E+001,
1.049479739869935E+007,1.755760657141967E+002,9.901716933894423E+001,
1.054477238619310E+007,1.762195964237215E+002,9.883889591659212E+001,
1.059474737368684E+007,1.768757334807016E+002,9.903767790165330E+001,
1.064472236118059E+007,1.773378536225259E+002,9.902531632014217E+001,
1.069469734867434E+007,1.779133459968475E+002,9.908829921361598E+001,
1.074467233616808E+007,1.784884504491395E+002,9.916478312279267E+001,
1.079464732366183E+007,1.789743286001735E+002,9.907388636528533E+001,
1.084462231115558E+007,1.796271048998399E+002,9.916990103385430E+001,
1.089459729864932E+007,1.801094726663150E+002,9.903640088762646E+001,
1.094457228614307E+007,1.807003733331000E+002,9.917168861307782E+001,
1.099454727363682E+007,1.812888858999108E+002,9.913026393882387E+001,
1.104452226113056E+007,1.818258335556375E+002,9.915766767417016E+001,
1.109449724862431E+007,1.823216816144443E+002,9.921668708999198E+001,
1.114447223611806E+007,1.830287802161944E+002,9.929430132075203E+001,
1.119444722361181E+007,1.833624224480208E+002,9.928672151205193E+001,
1.124442221110555E+007,1.840131383164109E+002,9.924574527710298E+001,
1.129439719859930E+007,1.846320352209564E+002,9.927005422639174E+001,
1.134437218609305E+007,1.852511815978594E+002,9.930175891250953E+001,
1.139434717358679E+007,1.857025523083419E+002,9.931978904104639E+001,
1.144432216108054E+007,1.862776612339982E+002,9.922446493509081E+001,
1.149429714857429E+007,1.868131048340096E+002,9.925268000372883E+001,
1.154427213606803E+007,1.875627078758232E+002,9.920786879444833E+001,
1.159424712356178E+007,1.878534599331918E+002,9.926139256182127E+001,
1.164422211105553E+007,1.884692433618549E+002,9.915631950261718E+001,
1.169419709854928E+007,1.891304850819862E+002,9.922725671041069E+001,
1.174417208604302E+007,1.896484385834299E+002,9.922705082135089E+001,
1.179414707353677E+007,1.902798410649175E+002,9.926807103615343E+001,
1.184412206103052E+007,1.907109525221835E+002,9.915256616948098E+001,
1.189409704852426E+007,1.912838752488546E+002,9.905971378676593E+001,
1.194407203601801E+007,1.918182226423993E+002,9.905405344672079E+001,
1.199404702351175E+007,1.925241948332347E+002,9.908569483261573E+001,
1.204402201100550E+007,1.930150075488720E+002,9.909869571167769E+001,
1.209399699849925E+007,1.934431656512971E+002,9.900551602989887E+001,
1.214397198599300E+007,1.940156829064815E+002,9.889827342558931E+001,
1.219394697348674E+007,1.946092619166267E+002,9.888791543332133E+001,
1.224392196098049E+007,1.951232129723157E+002,9.874543167997302E+001,
1.229389694847424E+007,1.957332792982476E+002,9.890004079879296E+001,
1.234387193596798E+007,1.962342637380728E+002,9.871420148161651E+001,
1.239384692346173E+007,1.968145102363982E+002,9.876113931300097E+001,
1.244382191095548E+007,1.974456364356844E+002,9.859056300709564E+001,
1.249379689844922E+007,1.979084071165563E+002,9.869982094397172E+001,
1.254377188594297E+007,1.985344253415474E+002,9.852468658400163E+001,
1.259374687343672E+007,1.990534894056904E+002,9.846983911773181E+001,
1.264372186093047E+007,1.996288217470452E+002,9.846074007017099E+001,
1.269369684842421E+007,2.001868399978694E+002,9.830193492654493E+001,
1.274367183591796E+007,2.006978920129614E+002,9.824766441054079E+001,
1.279364682341171E+007,2.012341218528014E+002,9.821114059733040E+001,
1.284362181090545E+007,2.017689653905555E+002,9.816277469507770E+001,
1.289359679839920E+007,2.023761592177894E+002,9.800070325380231E+001,
1.294357178589295E+007,2.029401556810226E+002,9.808521178937693E+001,
1.299354677338669E+007,2.035071363497148E+002,9.802686603588745E+001,
1.304352176088044E+007,2.041186690844232E+002,9.797476646924676E+001,
1.309349674837419E+007,2.046363992702993E+002,9.790969811746248E+001,
1.314347173586793E+007,2.050183274573751E+002,9.769298259899800E+001,
1.319344672336168E+007,2.058088333420706E+002,9.763426991057706E+001,
1.324342171085543E+007,2.060956362771085E+002,9.756180057016385E+001,
1.329339669834917E+007,2.068303098040512E+002,9.748295040780597E+001,
1.334337168584292E+007,2.074110186788078E+002,9.732613253145689E+001,
1.339334667333667E+007,2.079106720225835E+002,9.724878320275458E+001,
1.344332166083041E+007,2.085299394401388E+002,9.717236650319660E+001,
1.349329664832416E+007,2.088811489937771E+002,9.707550463564748E+001,
1.354327163581791E+007,2.096404267976575E+002,9.695934365067431E+001,
1.359324662331166E+007,2.102615179555063E+002,9.711440003314331E+001,
1.364322161080540E+007,2.106128012952331E+002,9.677557464421419E+001,
1.369319659829915E+007,2.112842088056452E+002,9.671039480511151E+001,
1.374317158579290E+007,2.117458307760016E+002,9.653578067443925E+001,
1.379314657328664E+007,2.121653194948863E+002,9.654106525699231E+001,
1.384312156078039E+007,2.129454834970449E+002,9.628929575483669E+001,
1.389309654827414E+007,2.133887987995859E+002,9.625567563633109E+001,
1.394307153576788E+007,2.138913302307842E+002,9.626187682573833E+001,
1.399304652326163E+007,2.145173290744268E+002,9.592658607436798E+001,
1.404302151075538E+007,2.149087602879846E+002,9.587754162086094E+001,
