% Version 1.00
%
% Ref Impedances: Z01: 50, Z02: 50
% 
%freq[Hz];re:Trc2_Z<-S11[Ohm];im:Trc2_Z<-S11[Ohm];
1.000000000000000E+005,3.717589329440441E-002,7.696585611775184E-001,
1.499749874937469E+005,4.013212976599289E-002,1.144948182675206E+000,
1.999499749874937E+005,4.961137668469566E-002,1.523732697341724E+000,
2.499249624812406E+005,6.018313172497320E-002,1.895955273932609E+000,
2.998999499749875E+005,7.863821050302668E-002,2.271856037452206E+000,
3.498749374687343E+005,9.038399893162759E-002,2.645336022821915E+000,
3.998499249624813E+005,1.070464096905088E-001,3.012446702938541E+000,
4.498249124562281E+005,1.160169487992000E-001,3.383615050774975E+000,
4.997998999499750E+005,1.341335118587350E-001,3.761825904195980E+000,
5.497748874437218E+005,1.482845941726911E-001,4.122430860824189E+000,
5.997498749374687E+005,1.603609674008077E-001,4.493732511196025E+000,
6.497248624312156E+005,1.780838325774027E-001,4.867592934615527E+000,
6.996998499249625E+005,2.077344480259030E-001,5.226387348931718E+000,
7.496748374187093E+005,2.136038914917270E-001,5.592352884588999E+000,
7.996498249124562E+005,2.389211134140733E-001,5.956785848178913E+000,
8.496248124062030E+005,2.578378588176255E-001,6.322293852583488E+000,
8.995997998999499E+005,2.744840447827142E-001,6.691947129582625E+000,
9.495747873936968E+005,2.960114994088441E-001,7.060298031920953E+000,
9.995497748874436E+005,3.199186789474917E-001,7.414623917557774E+000,
1.049524762381190E+006,3.449042426851927E-001,7.778005224212444E+000,
1.099499749874937E+006,3.672687632485376E-001,8.139593729453283E+000,
1.149474737368684E+006,3.881132468950230E-001,8.507502491679441E+000,
1.199449724862431E+006,4.050913950407657E-001,8.875706069811873E+000,
1.249424712356178E+006,4.341230938249494E-001,9.227157872433983E+000,
1.299399699849925E+006,4.555170076015286E-001,9.583541463289750E+000,
1.349374687343672E+006,4.795100131388923E-001,9.956197577793306E+000,
1.399349674837419E+006,5.065785891607969E-001,1.031083000802878E+001,
1.449324662331166E+006,5.315346329227589E-001,1.067436482040687E+001,
1.499299649824912E+006,5.538540431972848E-001,1.102991673327106E+001,
1.549274637318659E+006,5.807585704784503E-001,1.138900626486313E+001,
1.599249624812406E+006,6.108152754152516E-001,1.174874528370472E+001,
1.649224612306153E+006,6.306873937971114E-001,1.210852190367235E+001,
1.699199599799900E+006,6.555150545506798E-001,1.246164003336748E+001,
1.749174587293647E+006,6.849589460360467E-001,1.282248737815492E+001,
1.799149574787394E+006,7.108915452910346E-001,1.317560330048377E+001,
1.849124562281140E+006,7.420277681524539E-001,1.353524011377371E+001,
1.899099549774887E+006,7.665577589043179E-001,1.390296569085995E+001,
1.949074537268634E+006,8.057092048681429E-001,1.425212641257722E+001,
1.999049524762381E+006,8.195520263850460E-001,1.460971294992876E+001,
2.049024512256128E+006,8.504417814321289E-001,1.496615029317904E+001,
2.098999499749875E+006,8.841288765742783E-001,1.532316017129715E+001,
2.148974487243622E+006,9.165485370005452E-001,1.567837566235543E+001,
2.198949474737369E+006,9.474061207193243E-001,1.603172288013240E+001,
2.248924462231115E+006,9.730463365242091E-001,1.639006271124387E+001,
2.298899449724862E+006,1.000839454157960E+000,1.675521080951101E+001,
2.348874437218609E+006,1.039300588312880E+000,1.710113086908656E+001,
2.398849424712356E+006,1.071553758720845E+000,1.745556325846458E+001,
2.448824412206103E+006,1.105923052256140E+000,1.780267957389855E+001,
2.498799399699850E+006,1.140302346388697E+000,1.815932071545930E+001,
2.548774387193597E+006,1.166808748190865E+000,1.851557392434659E+001,
2.598749374687343E+006,1.197288461461339E+000,1.887574773589899E+001,
2.648724362181090E+006,1.229127074774032E+000,1.921911704852874E+001,
2.698699349674837E+006,1.261760852866884E+000,1.958823733268015E+001,
2.748674337168584E+006,1.299821254300640E+000,1.992881402275493E+001,
2.798649324662331E+006,1.332400233206512E+000,2.028644931728418E+001,
2.848624312156078E+006,1.368058068935900E+000,2.063908669731948E+001,
2.898599299649825E+006,1.405410940751630E+000,2.100192238662536E+001,
2.948574287143572E+006,1.438143911327782E+000,2.135027849155037E+001,
2.998549274637319E+006,1.475757077185598E+000,2.169488728767813E+001,
3.048524262131065E+006,1.509703584240061E+000,2.205248708055792E+001,
3.098499249624812E+006,1.544602036481911E+000,2.240503543679969E+001,
3.148474237118559E+006,1.584484601291955E+000,2.276079927486025E+001,
3.198449224612306E+006,1.616137850937856E+000,2.311036008006348E+001,
3.248424212106053E+006,1.658644721311034E+000,2.347380781789802E+001,
3.298399199599800E+006,1.699112902219782E+000,2.380786506009751E+001,
3.348374187093547E+006,1.733847591566427E+000,2.416969911844303E+001,
3.398349174587294E+006,1.779848632907415E+000,2.452592576943138E+001,
3.448324162081040E+006,1.814016779580854E+000,2.487376868409293E+001,
3.498299149574787E+006,1.851273408387896E+000,2.523314465043093E+001,
3.548274137068534E+006,1.893875183678070E+000,2.558357796159260E+001,
3.598249124562281E+006,1.927636095514185E+000,2.592149430029929E+001,
3.648224112056028E+006,1.969251405371971E+000,2.628357456229420E+001,
3.698199099549775E+006,2.001086258349761E+000,2.663665676614625E+001,
3.748174087043522E+006,2.056732664545469E+000,2.699236185898756E+001,
3.798149074537268E+006,2.087426663069040E+000,2.733651346999788E+001,
3.848124062031015E+006,2.120755487969163E+000,2.769252183082264E+001,
3.898099049524762E+006,2.174429501787505E+000,2.803501972775100E+001,
3.948074037018509E+006,2.211830488687734E+000,2.839635748913884E+001,
3.998049024512256E+006,2.265171143843602E+000,2.875998994633793E+001,
4.048024012006003E+006,2.300857750128121E+000,2.909547722918618E+001,
4.097998999499749E+006,2.348238720869692E+000,2.944807588673547E+001,
4.147973986993496E+006,2.373501001933217E+000,2.979750836651819E+001,
4.197948974487243E+006,2.427905900507932E+000,3.014893707261630E+001,
4.247923961980990E+006,2.463100362970968E+000,3.048485862731068E+001,
4.297898949474737E+006,2.495676141458425E+000,3.084864143289817E+001,
4.347873936968484E+006,2.555500317101957E+000,3.119410313778136E+001,
4.397848924462231E+006,2.604236474199746E+000,3.154487477585760E+001,
4.447823911955978E+006,2.627294797794591E+000,3.189698293709523E+001,
4.497798899449725E+006,2.683023401028376E+000,3.224827798796548E+001,
4.547773886943472E+006,2.733034042166029E+000,3.260805163419047E+001,
4.597748874437219E+006,2.774740957639522E+000,3.295568847766810E+001,
4.647723861930965E+006,2.820305764774573E+000,3.331633204531491E+001,
4.697698849424712E+006,2.872849766942813E+000,3.365945687802029E+001,
4.747673836918459E+006,2.923422807888120E+000,3.400762426751801E+001,
4.797648824412206E+006,2.955932528516927E+000,3.435440777110521E+001,
4.847623811905953E+006,3.009898754019484E+000,3.470315891035576E+001,
4.897598799399700E+006,3.057647052656171E+000,3.506532561923841E+001,
4.947573786893446E+006,3.097635428607588E+000,3.541682267845482E+001,
4.997548774387193E+006,3.159192444114051E+000,3.577305148357420E+001,
5.047523761880940E+006,3.197320461965846E+000,3.610668495638652E+001,
5.097498749374687E+006,3.241290578550891E+000,3.646773842028382E+001,
5.147473736868434E+006,3.295240135173404E+000,3.680413681626693E+001,
5.197448724362181E+006,3.351160553198637E+000,3.717158033496238E+001,
5.247423711855928E+006,3.399002448554327E+000,3.751898298300117E+001,
5.297398699349674E+006,3.434712932761028E+000,3.787502433558961E+001,
5.347373686843421E+006,3.488654593256630E+000,3.824108334247821E+001,
5.397348674337168E+006,3.541770692449546E+000,3.857485765635118E+001,
5.447323661830915E+006,3.594228399285473E+000,3.892697200593880E+001,
5.497298649324662E+006,3.627189335292042E+000,3.927067388824258E+001,
5.547273636818409E+006,3.693762476060320E+000,3.962935167709264E+001,
5.597248624312156E+006,3.742054559433325E+000,3.998062027641712E+001,
5.647223611805903E+006,3.785018959636141E+000,4.032771716314669E+001,
5.697198599299650E+006,3.838482223438326E+000,4.069034671790855E+001,
5.747173586793397E+006,3.904059594753892E+000,4.103571689764961E+001,
5.797148574287144E+006,3.950795619275392E+000,4.140138610452285E+001,
5.847123561780890E+006,3.992380765073732E+000,4.175078102927185E+001,
5.897098549274637E+006,4.067313249290059E+000,4.209997479939166E+001,
5.947073536768384E+006,4.107941553236872E+000,4.245362044600941E+001,
5.997048524262130E+006,4.163670169490477E+000,4.279976215572835E+001,
6.047023511755877E+006,4.206414940030197E+000,4.315805723890185E+001,
6.096998499249624E+006,4.261202398559604E+000,4.350620014560425E+001,
6.146973486743371E+006,4.319898913911342E+000,4.386922936431263E+001,
6.196948474237118E+006,4.375951017286332E+000,4.420991737654554E+001,
6.246923461730865E+006,4.423301756237322E+000,4.456455203145958E+001,
6.296898449224612E+006,4.487938031265266E+000,4.491515181587432E+001,
6.346873436718359E+006,4.538489821618803E+000,4.527802871738118E+001,
6.396848424212106E+006,4.602929985617980E+000,4.561979475875341E+001,
6.446823411705853E+006,4.662402872751986E+000,4.597752470812385E+001,
6.496798399199599E+006,4.728384014109891E+000,4.633251379422476E+001,
6.546773386693346E+006,4.769178295457293E+000,4.668268868637509E+001,
6.596748374187093E+006,4.833649767977440E+000,4.704891774859657E+001,
6.646723361680840E+006,4.892345795319879E+000,4.739936191294203E+001,
6.696698349174587E+006,4.955564351460533E+000,4.776377839203671E+001,
6.746673336668334E+006,5.016025511492682E+000,4.812394049538062E+001,
6.796648324162081E+006,5.071166861473510E+000,4.844807435855900E+001,
6.846623311655828E+006,5.124633917375616E+000,4.883038501892713E+001,
6.896598299149575E+006,5.179371810889863E+000,4.917294514342908E+001,
6.946573286643322E+006,5.234494590703871E+000,4.953956514188077E+001,
6.996548274137069E+006,5.301850169487842E+000,4.987960199688105E+001,
7.046523261630815E+006,5.364583910842675E+000,5.022956275063119E+001,
7.096498249124561E+006,5.421027105613937E+000,5.059529492258766E+001,
7.146473236618308E+006,5.488065691983589E+000,5.095343959785358E+001,
7.196448224112055E+006,5.543472440369001E+000,5.130610637414863E+001,
7.246423211605802E+006,5.585040366665138E+000,5.166658207840868E+001,
7.296398199099549E+006,5.662229867061217E+000,5.201614350024632E+001,
7.346373186593296E+006,5.736853810393038E+000,5.237264830911465E+001,
7.396348174087043E+006,5.792693556800931E+000,5.272315824058551E+001,
7.446323161580790E+006,5.840014993065374E+000,5.308519905092663E+001,
7.496298149074537E+006,5.905132795103885E+000,5.345160384124386E+001,
7.546273136568284E+006,5.962745070333352E+000,5.381020869261370E+001,
7.596248124062031E+006,6.033181868151902E+000,5.416136475443237E+001,
7.646223111555778E+006,6.093344389699723E+000,5.452041833798104E+001,
7.696198099049524E+006,6.162001607230625E+000,5.487689630613986E+001,
7.746173086543271E+006,6.220517893254496E+000,5.522349880040976E+001,
7.796148074037018E+006,6.282906234773243E+000,5.559272073489048E+001,
7.846123061530765E+006,6.347446853819449E+000,5.594341762516416E+001,
7.896098049024512E+006,6.435320961259249E+000,5.631911464476149E+001,
7.946073036518259E+006,6.490383335150488E+000,5.668033587818209E+001,
7.996048024012006E+006,6.562674677833007E+000,5.702965074969571E+001,
8.046023011505753E+006,6.610912133537021E+000,5.739229886961188E+001,
8.095997998999499E+006,6.698647368381667E+000,5.776148367185446E+001,
8.145972986493246E+006,6.736892289914206E+000,5.810965508014660E+001,
8.195947973986993E+006,6.828779976981928E+000,5.847176782699870E+001,
8.245922961480740E+006,6.871098612627924E+000,5.882809423975704E+001,
8.295897948974486E+006,6.945788341267642E+000,5.919020167191680E+001,
8.345872936468233E+006,7.022054864760037E+000,5.955856675671912E+001,
8.395847923961980E+006,7.091339357177671E+000,5.990050728306424E+001,
8.445822911455728E+006,7.153755159272495E+000,6.027193424530805E+001,
8.495797898949474E+006,7.214851248972416E+000,6.063840897550523E+001,
8.545772886443222E+006,7.295940862034431E+000,6.099157589857038E+001,
8.595747873936968E+006,7.369309797724593E+000,6.137185942226292E+001,
8.645722861430714E+006,7.420979643608471E+000,6.172334580329556E+001,
8.695697848924462E+006,7.514595628443110E+000,6.211454012947542E+001,
8.745672836418208E+006,7.572111468792669E+000,6.246157500325893E+001,
8.795647823911956E+006,7.615725641921712E+000,6.282861976915469E+001,
8.845622811405702E+006,7.712537138268409E+000,6.317555408936102E+001,
8.895597798899449E+006,7.789947723732612E+000,6.354825071094280E+001,
8.945572786393195E+006,7.868224597267514E+000,6.391830383194928E+001,
8.995547773886943E+006,7.914756437965465E+000,6.428608696440747E+001,
9.045522761380689E+006,8.001151817679320E+000,6.465302978087047E+001,
9.095497748874437E+006,8.076154218043724E+000,6.501031308008817E+001,
9.145472736368183E+006,8.145282516570743E+000,6.539120935391729E+001,
9.195447723861931E+006,8.235550050302697E+000,6.573407841321055E+001,
9.245422711355677E+006,8.295323674691053E+000,6.612231506030911E+001,
9.295397698849425E+006,8.360487798608411E+000,6.646752117182790E+001,
9.345372686343171E+006,8.439785377641201E+000,6.685402353536317E+001,
9.395347673836919E+006,8.505707569062187E+000,6.721441998329487E+001,
9.445322661330665E+006,8.598295541803790E+000,6.759541284381663E+001,
9.495297648824412E+006,8.692290086542725E+000,6.795741462630981E+001,
9.545272636318158E+006,8.754020998910528E+000,6.833799907573693E+001,
9.595247623811906E+006,8.853815869033546E+000,6.871062316916002E+001,
9.645222611305652E+006,8.904820297577118E+000,6.908930566446198E+001,
9.695197598799400E+006,8.995718879324585E+000,6.945411177778998E+001,
9.745172586293146E+006,9.067678763689662E+000,6.982534990396066E+001,
9.795147573786892E+006,9.154366941025211E+000,7.020082274435427E+001,
9.845122561280640E+006,9.210321307222957E+000,7.054274102778275E+001,
9.895097548774386E+006,9.325154938247485E+000,7.091951167758538E+001,
9.945072536268134E+006,9.374363331031626E+000,7.131373996831891E+001,
9.995047523761880E+006,9.487366021833992E+000,7.168649317169688E+001,
1.004502251125563E+007,9.537735963898006E+000,7.204309305355248E+001,
1.009499749874937E+007,9.630316543008714E+000,7.241001920023328E+001,
1.014497248624312E+007,9.725577308836058E+000,7.277623756016126E+001,
1.019494747373687E+007,9.785317104728415E+000,7.316654279171921E+001,
1.024492246123062E+007,9.844197041512100E+000,7.354764431907023E+001,
1.029489744872436E+007,9.966651846213834E+000,7.389926846392135E+001,
1.034487243621811E+007,1.006302015919137E+001,7.428466492236761E+001,
1.039484742371186E+007,1.012537430685609E+001,7.467417467284656E+001,
1.044482241120560E+007,1.021226540240324E+001,7.503783565495027E+001,
1.049479739869935E+007,1.029457024660314E+001,7.539811575681769E+001,
1.054477238619310E+007,1.038757742459653E+001,7.576564293770335E+001,
1.059474737368684E+007,1.045913558004796E+001,7.614492416884725E+001,
1.064472236118059E+007,1.055100841805211E+001,7.653187917741641E+001,
1.069469734867434E+007,1.062238063625189E+001,7.690321469838999E+001,
1.074467233616808E+007,1.069073030950895E+001,7.726744586399154E+001,
1.079464732366183E+007,1.081478061667686E+001,7.766104788218148E+001,
1.084462231115558E+007,1.089971256785116E+001,7.803010831604749E+001,
1.089459729864932E+007,1.097786911062779E+001,7.840839403278653E+001,
1.094457228614307E+007,1.105347018949072E+001,7.878386307057151E+001,
1.099454727363682E+007,1.114863202073690E+001,7.915967684672260E+001,
1.104452226113056E+007,1.122429811591615E+001,7.953658999889028E+001,
1.109449724862431E+007,1.134877545851640E+001,7.992937579990098E+001,
1.114447223611806E+007,1.143733959111297E+001,8.030129222001878E+001,
1.119444722361181E+007,1.149631447480242E+001,8.066997736148277E+001,
1.124442221110555E+007,1.157284657653356E+001,8.107213265588882E+001,
1.129439719859930E+007,1.167972720160505E+001,8.144798794905510E+001,
1.134437218609305E+007,1.177712910989645E+001,8.184434153140495E+001,
1.139434717358679E+007,1.186383207580568E+001,8.220709282284915E+001,
1.144432216108054E+007,1.193656044670748E+001,8.258495622065325E+001,
1.149429714857429E+007,1.202965339923690E+001,8.301102308645370E+001,
1.154427213606803E+007,1.214721624934986E+001,8.338559926866340E+001,
1.159424712356178E+007,1.222998218810377E+001,8.375812687053734E+001,
1.164422211105553E+007,1.234936142899782E+001,8.415061664890271E+001,
1.169419709854928E+007,1.238479720733679E+001,8.453363950300238E+001,
1.174417208604302E+007,1.250626696856608E+001,8.492129927802768E+001,
1.179414707353677E+007,1.257945529839026E+001,8.532805055242002E+001,
1.184412206103052E+007,1.270937778176796E+001,8.574038346969043E+001,
1.189409704852426E+007,1.278477081294219E+001,8.610783576824265E+001,
1.194407203601801E+007,1.287878268752186E+001,8.644597184001171E+001,
1.199404702351175E+007,1.299226736700927E+001,8.687164391370610E+001,
1.204402201100550E+007,1.306754146373068E+001,8.726985742289031E+001,
1.209399699849925E+007,1.318283284874174E+001,8.764536126603333E+001,
1.214397198599300E+007,1.331571309684962E+001,8.800482842445409E+001,
1.219394697348674E+007,1.336835571653562E+001,8.842789361133262E+001,
1.224392196098049E+007,1.353925075637581E+001,8.879593536010442E+001,
1.229389694847424E+007,1.358348644139162E+001,8.923786844652915E+001,
1.234387193596798E+007,1.370447272263298E+001,8.958012509746260E+001,
1.239384692346173E+007,1.379764645589618E+001,9.002773808401022E+001,
1.244382191095548E+007,1.387056151250994E+001,9.039188273053618E+001,
1.249379689844922E+007,1.401041754124459E+001,9.080081616117438E+001,
1.254377188594297E+007,1.411700571890864E+001,9.120089615689420E+001,
1.259374687343672E+007,1.424273070692942E+001,9.157264200286232E+001,
1.264372186093047E+007,1.429930136995610E+001,9.199963130057883E+001,
1.269369684842421E+007,1.441259166912598E+001,9.234641162795515E+001,
1.274367183591796E+007,1.453137647029608E+001,9.276278314783930E+001,
1.279364682341171E+007,1.462890801402543E+001,9.317775705038095E+001,
1.284362181090545E+007,1.475400052986142E+001,9.353087503659553E+001,
1.289359679839920E+007,1.483848442091681E+001,9.398444871393370E+001,
1.294357178589295E+007,1.494601923762807E+001,9.434793602766054E+001,
1.299354677338669E+007,1.503674521237116E+001,9.474497554658441E+001,
1.304352176088044E+007,1.515181108330201E+001,9.517087891872305E+001,
1.309349674837419E+007,1.524401637181271E+001,9.561157552361824E+001,
1.314347173586793E+007,1.536528173239399E+001,9.595126922126721E+001,
1.319344672336168E+007,1.549561351420282E+001,9.638028559001420E+001,
1.324342171085543E+007,1.559157170860220E+001,9.675890878679745E+001,
1.329339669834917E+007,1.568683692537519E+001,9.719789425273046E+001,
1.334337168584292E+007,1.583581470871697E+001,9.761112432250813E+001,
1.339334667333667E+007,1.595942848322226E+001,9.799381654862481E+001,
1.344332166083041E+007,1.605460011763333E+001,9.841649711184998E+001,
1.349329664832416E+007,1.615242764849932E+001,9.879796243559743E+001,
1.354327163581791E+007,1.630210905350295E+001,9.925068840898194E+001,
1.359324662331166E+007,1.633601152934993E+001,9.960878169734131E+001,
1.364322161080540E+007,1.650508971243585E+001,1.000252700307520E+002,
1.369319659829915E+007,1.661639525767914E+001,1.004371849387195E+002,
1.374317158579290E+007,1.672012146288756E+001,1.008726227814645E+002,
1.379314657328664E+007,1.684778756695554E+001,1.012718693492758E+002,
1.384312156078039E+007,1.698523237676424E+001,1.017041628545784E+002,
1.389309654827414E+007,1.708530615947747E+001,1.020866343521436E+002,
1.394307153576788E+007,1.719385650543219E+001,1.024870784584517E+002,
1.399304652326163E+007,1.732961411511855E+001,1.029116899941078E+002,
1.404302151075538E+007,1.742749578973416E+001,1.033450158629330E+002,
