% Version 1.00
%
% Ref Impedances: Z01: 50, Z02: 50
% 
%freq[Hz];re:Trc2_Z<-S11[Ohm];im:Trc2_Z<-S11[Ohm];
1.000000000000000E+005,3.597654126540427E-002,8.049325184777965E-001,
1.499749874937469E+005,3.613018781721736E-002,1.196996607911382E+000,
1.999499749874937E+005,4.710792942703018E-002,1.603997482875543E+000,
2.499249624812406E+005,6.416271711827393E-002,1.995527411649894E+000,
2.998999499749875E+005,7.426388260875647E-002,2.388059112420222E+000,
3.498749374687343E+005,9.140187429419239E-002,2.782695482969108E+000,
3.998499249624813E+005,1.023172437561695E-001,3.170144224998140E+000,
4.498249124562281E+005,1.162359970245001E-001,3.565843228833211E+000,
4.997998999499750E+005,1.319505685758179E-001,3.950860608103637E+000,
5.497748874437218E+005,1.448429116852744E-001,4.343123411094894E+000,
5.997498749374687E+005,1.595989276285225E-001,4.722585180543628E+000,
6.497248624312156E+005,1.780480448880718E-001,5.115430458980340E+000,
6.996998499249625E+005,2.066246109490389E-001,5.495882503618420E+000,
7.496748374187093E+005,2.199906683643283E-001,5.884208772505427E+000,
7.996498249124562E+005,2.422990655039392E-001,6.275992432596263E+000,
8.496248124062030E+005,2.643579893478822E-001,6.651209239700369E+000,
8.995997998999499E+005,2.754627563420241E-001,7.047273700258543E+000,
9.495747873936968E+005,2.970928964672557E-001,7.424121363412080E+000,
9.995497748874436E+005,3.216447797238281E-001,7.805578491083945E+000,
1.049524762381190E+006,3.415563729511210E-001,8.185798199220457E+000,
1.099499749874937E+006,3.676951159780353E-001,8.567380681210064E+000,
1.149474737368684E+006,3.947813893740572E-001,8.951653021863864E+000,
1.199449724862431E+006,4.084060606302629E-001,9.337621285952382E+000,
1.249424712356178E+006,4.425205896801617E-001,9.718225456166653E+000,
1.299399699849925E+006,4.620071745435855E-001,1.009286640093667E+001,
1.349374687343672E+006,4.872712492780876E-001,1.047561783378917E+001,
1.399349674837419E+006,5.070956663892171E-001,1.085704259327912E+001,
1.449324662331166E+006,5.352275218888507E-001,1.123493304458537E+001,
1.499299649824912E+006,5.618164065304887E-001,1.160583897298341E+001,
1.549274637318659E+006,5.922870601020255E-001,1.198869880184114E+001,
1.599249624812406E+006,6.137919901219343E-001,1.236943641488935E+001,
1.649224612306153E+006,6.351729950672330E-001,1.274490472299620E+001,
1.699199599799900E+006,6.709830493501533E-001,1.311784933278845E+001,
1.749174587293647E+006,6.932759333823885E-001,1.350370534315839E+001,
1.799149574787394E+006,7.212561407046872E-001,1.388096934081403E+001,
1.849124562281140E+006,7.529435620638947E-001,1.425253082585926E+001,
1.899099549774887E+006,7.766658097270578E-001,1.464030788205787E+001,
1.949074537268634E+006,8.156998013722133E-001,1.500474448833394E+001,
1.999049524762381E+006,8.383003071742695E-001,1.538747257496322E+001,
2.049024512256128E+006,8.671515918881046E-001,1.576025026222576E+001,
2.098999499749875E+006,8.987100951248321E-001,1.613951444457998E+001,
2.148974487243622E+006,9.368521115416788E-001,1.651141693795895E+001,
2.198949474737369E+006,9.635544778775578E-001,1.688532066625423E+001,
2.248924462231115E+006,9.895599596820844E-001,1.726023135832187E+001,
2.298899449724862E+006,1.016234055257021E+000,1.764671942235279E+001,
2.348874437218609E+006,1.052811747647838E+000,1.801265790550101E+001,
2.398849424712356E+006,1.089159011863856E+000,1.839010235033601E+001,
2.448824412206103E+006,1.127721982888678E+000,1.875425240578607E+001,
2.498799399699850E+006,1.151808323531328E+000,1.913612413978823E+001,
2.548774387193597E+006,1.182262312080456E+000,1.950932999990078E+001,
2.598749374687343E+006,1.218424363923268E+000,1.988410027846428E+001,
2.648724362181090E+006,1.257826752377173E+000,2.025425856742182E+001,
2.698699349674837E+006,1.288984178456243E+000,2.063784686923314E+001,
2.748674337168584E+006,1.325173859488745E+000,2.099889645123296E+001,
2.798649324662331E+006,1.361459470709428E+000,2.137431516215605E+001,
2.848624312156078E+006,1.394075437944115E+000,2.174488267173377E+001,
2.898599299649825E+006,1.439180555695880E+000,2.212528580212608E+001,
2.948574287143572E+006,1.475070363009579E+000,2.249704146256793E+001,
2.998549274637319E+006,1.509585002390115E+000,2.286557707173460E+001,
3.048524262131065E+006,1.552444457846129E+000,2.324303567460916E+001,
3.098499249624812E+006,1.584030248283185E+000,2.360290004018563E+001,
3.148474237118559E+006,1.615324340277608E+000,2.397855551245601E+001,
3.198449224612306E+006,1.654508011613044E+000,2.435617913879357E+001,
3.248424212106053E+006,1.696272575798830E+000,2.473677014269537E+001,
3.298399199599800E+006,1.734217304644392E+000,2.509427173120097E+001,
3.348374187093547E+006,1.770358188187317E+000,2.547442512904249E+001,
3.398349174587294E+006,1.815264590572799E+000,2.584990419359730E+001,
3.448324162081040E+006,1.858702397230919E+000,2.621696371088365E+001,
3.498299149574787E+006,1.888428971250034E+000,2.659441750840716E+001,
3.548274137068534E+006,1.939531270732518E+000,2.696531894007199E+001,
3.598249124562281E+006,1.963156007554617E+000,2.732526196351022E+001,
3.648224112056028E+006,2.008133019696911E+000,2.770091670870120E+001,
3.698199099549775E+006,2.058617076262575E+000,2.808011915710266E+001,
3.748174087043522E+006,2.096856877899262E+000,2.844706142953482E+001,
3.798149074537268E+006,2.141277250412824E+000,2.881573703985363E+001,
3.848124062031015E+006,2.172896642194195E+000,2.918924503971810E+001,
3.898099049524762E+006,2.223412789164967E+000,2.955429547548961E+001,
3.948074037018509E+006,2.260958460645818E+000,2.993315415564128E+001,
3.998049024512256E+006,2.301463507843147E+000,3.032034626260846E+001,
4.048024012006003E+006,2.351906569723017E+000,3.067615929841140E+001,
4.097998999499749E+006,2.401255085066126E+000,3.104297451156086E+001,
4.147973986993496E+006,2.422353076419446E+000,3.142146000726201E+001,
4.197948974487243E+006,2.484112389391787E+000,3.179812764607736E+001,
4.247923961980990E+006,2.521413013091425E+000,3.215074043355121E+001,
4.297898949474737E+006,2.551860338735985E+000,3.252818888668742E+001,
4.347873936968484E+006,2.620239425785462E+000,3.290196238177936E+001,
4.397848924462231E+006,2.672731624252492E+000,3.326676629845144E+001,
4.447823911955978E+006,2.705815295606818E+000,3.363354066086664E+001,
4.497798899449725E+006,2.756434991732318E+000,3.400858797855261E+001,
4.547773886943472E+006,2.797242768645792E+000,3.438726350201335E+001,
4.597748874437219E+006,2.849425817420751E+000,3.475069439903589E+001,
4.647723861930965E+006,2.892254531455926E+000,3.512833915368837E+001,
4.697698849424712E+006,2.947179969433372E+000,3.550096686621686E+001,
4.747673836918459E+006,2.991949646440804E+000,3.587217797160561E+001,
4.797648824412206E+006,3.032447544108781E+000,3.624654765104022E+001,
4.847623811905953E+006,3.081040073014064E+000,3.661018162158190E+001,
4.897598799399700E+006,3.140014493819121E+000,3.699257227591495E+001,
4.947573786893446E+006,3.177274746505653E+000,3.736912911498096E+001,
4.997548774387193E+006,3.237411013126602E+000,3.774577253147188E+001,
5.047523761880940E+006,3.292793138736983E+000,3.810651329407273E+001,
5.097498749374687E+006,3.328802313555224E+000,3.847628848606055E+001,
5.147473736868434E+006,3.397624652468049E+000,3.883608001641790E+001,
5.197448724362181E+006,3.456090209962030E+000,3.921290434730518E+001,
5.247423711855928E+006,3.495019827269368E+000,3.957533129203219E+001,
5.297398699349674E+006,3.527980894412802E+000,3.994618683724239E+001,
5.347373686843421E+006,3.590314111827196E+000,4.033358308909475E+001,
5.397348674337168E+006,3.637812153427352E+000,4.068985413944613E+001,
5.447323661830915E+006,3.687514285537146E+000,4.106781418643859E+001,
5.497298649324662E+006,3.736495081272629E+000,4.143669674648390E+001,
5.547273636818409E+006,3.787726736979219E+000,4.180901605929373E+001,
5.597248624312156E+006,3.843526934773126E+000,4.217992676571024E+001,
5.647223611805903E+006,3.890691602207208E+000,4.254972410657474E+001,
5.697198599299650E+006,3.938465147649326E+000,4.294113954698742E+001,
5.747173586793397E+006,4.004753751791846E+000,4.331394003020952E+001,
5.797148574287144E+006,4.058139394617093E+000,4.369045913201946E+001,
5.847123561780890E+006,4.101911732777994E+000,4.406114218258982E+001,
5.897098549274637E+006,4.173925934715868E+000,4.443026982093467E+001,
5.947073536768384E+006,4.216092542895003E+000,4.480525494388846E+001,
5.997048524262130E+006,4.271892286381264E+000,4.518274516104505E+001,
6.047023511755877E+006,4.327142804269194E+000,4.554085033334655E+001,
6.096998499249624E+006,4.370317732259177E+000,4.592135465211138E+001,
6.146973486743371E+006,4.438253019052541E+000,4.630976222178483E+001,
6.196948474237118E+006,4.497265170681252E+000,4.667231241872946E+001,
6.246923461730865E+006,4.542335894687509E+000,4.704574590746331E+001,
6.296898449224612E+006,4.604840696408603E+000,4.742032942920244E+001,
6.346873436718359E+006,4.668581793069083E+000,4.781071732570396E+001,
6.396848424212106E+006,4.735071685322812E+000,4.816495616600634E+001,
6.446823411705853E+006,4.789748983552178E+000,4.855113521558462E+001,
6.496798399199599E+006,4.859861524032499E+000,4.892895469150840E+001,
6.546773386693346E+006,4.900370862248038E+000,4.929733205220553E+001,
6.596748374187093E+006,4.977770197256525E+000,4.968693504224818E+001,
6.646723361680840E+006,5.030543478383635E+000,5.006107353150220E+001,
6.696698349174587E+006,5.104891516572004E+000,5.046022635998054E+001,
6.746673336668334E+006,5.161369370610673E+000,5.082594692206333E+001,
6.796648324162081E+006,5.220788257767221E+000,5.117672249313437E+001,
6.846623311655828E+006,5.278577162664612E+000,5.158413048492837E+001,
6.896598299149575E+006,5.340057246501157E+000,5.195240335015573E+001,
6.946573286643322E+006,5.407378684884828E+000,5.233699821203214E+001,
6.996548274137069E+006,5.467687665580161E+000,5.270060017608088E+001,
7.046523261630815E+006,5.545336281134549E+000,5.308481715836630E+001,
7.096498249124561E+006,5.607094269863175E+000,5.345597110794527E+001,
7.146473236618308E+006,5.677746966267268E+000,5.384088895109214E+001,
7.196448224112055E+006,5.741448408417173E+000,5.420629689095269E+001,
7.246423211605802E+006,5.785889019184078E+000,5.459351944353422E+001,
7.296398199099549E+006,5.847191011540305E+000,5.495796651824210E+001,
7.346373186593296E+006,5.935086731825605E+000,5.534144492984174E+001,
7.396348174087043E+006,6.016110282839592E+000,5.572370332375501E+001,
7.446323161580790E+006,6.082014028440966E+000,5.610420645947531E+001,
7.496298149074537E+006,6.178704705606172E+000,5.646118903472232E+001,
7.546273136568284E+006,6.226437462018764E+000,5.680828518466528E+001,
7.596248124062031E+006,6.272961468503077E+000,5.716730076491167E+001,
7.646223111555778E+006,6.327274869951582E+000,5.755016277763505E+001,
7.696198099049524E+006,6.383272325513540E+000,5.793684437888342E+001,
7.746173086543271E+006,6.440187696847805E+000,5.829588072403644E+001,
7.796148074037018E+006,6.502860360717552E+000,5.868609283332454E+001,
7.846123061530765E+006,6.548573876896387E+000,5.907327466836451E+001,
7.896098049024512E+006,6.647611457757916E+000,5.947100522737498E+001,
7.946073036518259E+006,6.703137221048191E+000,5.984585414583684E+001,
7.996048024012006E+006,6.787888820836969E+000,6.022939682502616E+001,
8.046023011505753E+006,6.826778577224504E+000,6.060963800071969E+001,
8.095997998999499E+006,6.896894370920733E+000,6.100248691624699E+001,
8.145972986493246E+006,6.955755927973885E+000,6.137826493683172E+001,
8.195947973986993E+006,7.036179711972192E+000,6.175825999751344E+001,
8.245922961480740E+006,7.085735275560290E+000,6.214788218994503E+001,
8.295897948974486E+006,7.152190197737979E+000,6.253630843112094E+001,
8.345872936468233E+006,7.242076228222206E+000,6.291781544677702E+001,
8.395847923961980E+006,7.302589305485157E+000,6.328383069841817E+001,
8.445822911455728E+006,7.361052076132341E+000,6.366921460741376E+001,
8.495797898949474E+006,7.429859305674026E+000,6.406557344884706E+001,
8.545772886443222E+006,7.529424622761371E+000,6.445073698786086E+001,
8.595747873936968E+006,7.602157544005699E+000,6.484327185449202E+001,
8.645722861430714E+006,7.650429698188766E+000,6.522731373466272E+001,
8.695697848924462E+006,7.750105294629923E+000,6.564480238703338E+001,
8.745672836418208E+006,7.788651761939763E+000,6.600862972097372E+001,
8.795647823911956E+006,7.852627558908027E+000,6.640124705020736E+001,
8.845622811405702E+006,7.942068445566995E+000,6.677480468169047E+001,
8.895597798899449E+006,8.024043498549371E+000,6.718785468737721E+001,
8.945572786393195E+006,8.110846866377042E+000,6.756367067831077E+001,
8.995547773886943E+006,8.181552492831607E+000,6.795650856229214E+001,
9.045522761380689E+006,8.265110972349493E+000,6.836009755678298E+001,
9.095497748874437E+006,8.342925422558087E+000,6.873852670175653E+001,
9.145472736368183E+006,8.413412848826502E+000,6.913363498089672E+001,
9.195447723861931E+006,8.501391736114911E+000,6.949953588423101E+001,
9.245422711355677E+006,8.553751650660400E+000,6.989774553709903E+001,
9.295397698849425E+006,8.610543930365180E+000,7.028291391556586E+001,
9.345372686343171E+006,8.712329998502328E+000,7.069150183509534E+001,
9.395347673836919E+006,8.780230366855317E+000,7.105234842318004E+001,
9.445322661330665E+006,8.876818718241600E+000,7.147099655503082E+001,
9.495297648824412E+006,8.958434594794321E+000,7.185266526020337E+001,
9.545272636318158E+006,9.037032384894767E+000,7.227299992136693E+001,
9.595247623811906E+006,9.118937113063348E+000,7.265913172495758E+001,
9.645222611305652E+006,9.189500103776373E+000,7.306617913699799E+001,
9.695197598799400E+006,9.262410243806562E+000,7.345046129579647E+001,
9.745172586293146E+006,9.358096245816137E+000,7.384501637731951E+001,
9.795147573786892E+006,9.455861761637086E+000,7.425205754787581E+001,
9.845122561280640E+006,9.496770114118972E+000,7.462969488876722E+001,
9.895097548774386E+006,9.615174045242311E+000,7.502065680885370E+001,
9.945072536268134E+006,9.674865906022665E+000,7.543756457528198E+001,
9.995047523761880E+006,9.791576214402872E+000,7.583400205575009E+001,
1.004502251125563E+007,9.859831755832648E+000,7.621790637338953E+001,
1.009499749874937E+007,9.934321167628283E+000,7.663276640195637E+001,
1.014497248624312E+007,1.003089454529754E+001,7.700446377800674E+001,
1.019494747373687E+007,1.013071680227673E+001,7.743898350653339E+001,
1.024492246123062E+007,1.019270725943732E+001,7.781715729510886E+001,
1.029489744872436E+007,1.031118503609506E+001,7.821580760619577E+001,
1.034487243621811E+007,1.039239299669072E+001,7.861599919274532E+001,
1.039484742371186E+007,1.046698515254057E+001,7.901700502863234E+001,
1.044482241120560E+007,1.057267206353928E+001,7.939890815209269E+001,
1.049479739869935E+007,1.065554761055926E+001,7.979094757762466E+001,
1.054477238619310E+007,1.075325781072621E+001,8.018532201986236E+001,
1.059474737368684E+007,1.080697824703973E+001,8.058436794664854E+001,
1.064472236118059E+007,1.091840033457281E+001,8.096991930620463E+001,
1.069469734867434E+007,1.098795669391485E+001,8.137228618947241E+001,
1.074467233616808E+007,1.105026911915364E+001,8.178220137251894E+001,
1.079464732366183E+007,1.114685736502357E+001,8.220654979638546E+001,
1.084462231115558E+007,1.126591250240605E+001,8.259907194560864E+001,
1.089459729864932E+007,1.136968697113852E+001,8.300376354575224E+001,
1.094457228614307E+007,1.143842830395669E+001,8.342883073389541E+001,
1.099454727363682E+007,1.152177720992173E+001,8.381020678467202E+001,
1.104452226113056E+007,1.156682349734915E+001,8.422490577232246E+001,
1.109449724862431E+007,1.171226114650478E+001,8.460673313874962E+001,
1.114447223611806E+007,1.179524075591424E+001,8.503980278289669E+001,
1.119444722361181E+007,1.187797754229063E+001,8.541489547019449E+001,
1.124442221110555E+007,1.194962038497559E+001,8.584514676794181E+001,
1.129439719859930E+007,1.206844895502993E+001,8.627313819295551E+001,
1.134437218609305E+007,1.216525783252882E+001,8.666553708164581E+001,
1.139434717358679E+007,1.224643894161000E+001,8.708224806019705E+001,
1.144432216108054E+007,1.232111395664988E+001,8.747241012962802E+001,
1.149429714857429E+007,1.242848381905777E+001,8.790530856226542E+001,
1.154427213606803E+007,1.256197824880822E+001,8.833293210699888E+001,
1.159424712356178E+007,1.262981078506484E+001,8.871998579474789E+001,
1.164422211105553E+007,1.276637629515870E+001,8.915256641994660E+001,
1.169419709854928E+007,1.279407834694717E+001,8.958523828776386E+001,
1.174417208604302E+007,1.290973178124338E+001,8.999123306659146E+001,
1.179414707353677E+007,1.301188268711022E+001,9.042651620846472E+001,
1.184412206103052E+007,1.311970203980171E+001,9.084294072956514E+001,
1.189409704852426E+007,1.321775853855889E+001,9.125111101279343E+001,
1.194407203601801E+007,1.332567946848288E+001,9.165490728914297E+001,
1.199404702351175E+007,1.345438335325111E+001,9.206698746996671E+001,
1.204402201100550E+007,1.352004168206904E+001,9.251497599706441E+001,
1.209399699849925E+007,1.363571212044166E+001,9.290432525318941E+001,
1.214397198599300E+007,1.377449071328781E+001,9.331589148616429E+001,
1.219394697348674E+007,1.384366107629630E+001,9.373348001360026E+001,
1.224392196098049E+007,1.395122710642346E+001,9.414348911821030E+001,
1.229389694847424E+007,1.405841983292917E+001,9.459382733519844E+001,
1.234387193596798E+007,1.418055323279353E+001,9.498435606818129E+001,
1.239384692346173E+007,1.429425839457588E+001,9.544635881896251E+001,
1.244382191095548E+007,1.436818047700874E+001,9.586825902665410E+001,
1.249379689844922E+007,1.448517001193837E+001,9.627846194696430E+001,
1.254377188594297E+007,1.462350757615633E+001,9.673810560219070E+001,
1.259374687343672E+007,1.474127229204494E+001,9.712363864710260E+001,
1.264372186093047E+007,1.478598633893790E+001,9.757858520944994E+001,
1.269369684842421E+007,1.496212164372727E+001,9.796397125663947E+001,
1.274367183591796E+007,1.504897779696118E+001,9.840870161571149E+001,
1.279364682341171E+007,1.514424078463958E+001,9.884112388662241E+001,
1.284362181090545E+007,1.529003033563610E+001,9.923616832281576E+001,
1.289359679839920E+007,1.536655648359221E+001,9.969315596136629E+001,
1.294357178589295E+007,1.547285043272914E+001,1.000917612543519E+002,
1.299354677338669E+007,1.557519775444128E+001,1.005399723326064E+002,
1.304352176088044E+007,1.569495858939449E+001,1.010144977926546E+002,
1.309349674837419E+007,1.578150443875141E+001,1.014697094663295E+002,
1.314347173586793E+007,1.591286938735970E+001,1.018668316011507E+002,
1.319344672336168E+007,1.603556691395896E+001,1.023087836878940E+002,
1.324342171085543E+007,1.617335458821432E+001,1.026973652349549E+002,
1.329339669834917E+007,1.625542875817588E+001,1.031892923346129E+002,
1.334337168584292E+007,1.641226521056600E+001,1.036371652842434E+002,
1.339334667333667E+007,1.653962662890544E+001,1.040398020879232E+002,
1.344332166083041E+007,1.665070382177383E+001,1.045023829472023E+002,
1.349329664832416E+007,1.675925134860597E+001,1.049455399860747E+002,
1.354327163581791E+007,1.689783033361519E+001,1.053898387280450E+002,
1.359324662331166E+007,1.695123906026380E+001,1.058003474012446E+002,
1.364322161080540E+007,1.711791225251069E+001,1.062286013223276E+002,
1.369319659829915E+007,1.721826008069143E+001,1.066966961241820E+002,
1.374317158579290E+007,1.734048656145616E+001,1.071461751543526E+002,
1.379314657328664E+007,1.748401585178930E+001,1.075925543129333E+002,
1.384312156078039E+007,1.762686009460068E+001,1.080584428422130E+002,
1.389309654827414E+007,1.772912468409704E+001,1.084197741099825E+002,
1.394307153576788E+007,1.783890121838099E+001,1.088972102811098E+002,
1.399304652326163E+007,1.798065504000591E+001,1.093625507893267E+002,
1.404302151075538E+007,1.808303265877470E+001,1.098171830185931E+002,
